0
-113
-193
-338
-336
-360
-482
-522
-516
-526
-497
-469
-453
-448
-481
-468
-420
-399
-373
-263
-176
-126
-54
17
38
107
167
221
286
342
399
449
546
630
732
824
983
1054
1185
1234
1340
1401
1500
1654
1807
1827
1902
1994
2094
2147
2174
2172
2215
2277
2349
2408
2383
2470
2445
2532
2602
2693
2762
2830
2920
3008
3073
3137
3119
3170
3138
3212
3179
3265
3332
3464
3536
3500
3524
3478
3549
3513
3477
3442
3407
3372
3369
3373
3339
3344
3394
3398
3401
3450
3499
3463
3467
3432
3436
3440
3405
3412
3443
3492
3457
3533
3564
3528
3604
3567
3531
3607
3682
3706
3729
3699
3677
3726
3776
3854
3903
3930
3890
3797
3802
3851
3910
3870
3837
3798
3759
3819
3836
3756
3816
3833
3850
3788
3779
3794
3799
3771
3762
3772
3810
3855
3914
3956
3900
3803
3764
3637
3600
3622
3542
3421
3345
3312
3301
3498
3467
3492
3415
3357
3300
3298
3296
3319
3297
3230
3231
3357
3440
3405
3370
3336
3302
3268
3375
3341
3383
3349
3315
3281
3337
3274
3241
3208
3175
3244
3211
3159
3127
3095
3064
3072
3041
3010
2985
3003
2964
2934
3035
3004
3035
3108
3193
3297
3357
3481
3530
3640
3788
3892
4010
4119
4077
4036
3995
3955
3998
3957
3917
3877
3838
3799
3760
3722
3684
3647
3610
3573
3537
3501
3465
3430
3395
3361
3327
3293
3260
3227
3194
3363
3329
3295
3262
3229
3323
3344
3310
3358
3445
3410
3457
3422
3413
3378
3426
3391
3491
3522
3638
3725
3701
3716
3646
3749
3828
3829
3861
4013
3972
4000
4194
4303
4259
4367
4323
4539
4731
4767
4735
4687
4868
5034
4981
4920
4887
4924
4874
4814
4880
4962
5007
4956
4908
4858
4739
4720
4701
4653
4577
4509
4546
4500
4633
4586
4524
4478
4583
4537
4491
4446
4401
4356
4312
4268
4225
4182
4140
4098
4056
4015
3974
3934
3894
3855
3816
3777
3912
3872
4019
3978
3938
3898
3858
3819
3780
3742
3704
3666
3629
3592
3556
3520
3484
3449
3414
3379
3345
3432
3311
3277
3244
3211
3178
3146
3114
3082
3051
3082
3051
3087
3056
2987
2957
2927
2938
2956
3013
2982
2997
2967
2937
2907
2877
2848
2819
2790
2762
2734
2706
2678
2651
2710
2837
2808
2779
2751
2819
2790
2762
2707
2807
2778
2750
2722
2694
2688
2661
2635
2608
2521
2495
2470
2445
2420
2395
2371
2347
2323
2301
2277
2206
2183
2161
2087
2066
2040
1979
1959
1939
1919
1899
1879
1860
1779
1761
1743
1725
1707
1689
1672
1655
1638
1621
1604
1587
1571
1555
1539
1523
1507
1491
1476
1461
1409
1453
1497
1452
1437
1422
1310
1296
1283
1345
1229
1216
1203
1190
1178
1166
1093
1082
1071
965
822
813
804
725
655
594
532
526
520
529
523
517
511
505
499
493
510
504
498
493
488
483
478
384
380
376
372
313
309
305
301
297
294
291
220
220
217
179
177
133
131
102
100
-40
-210
-207
-204
-333
-481
-625
-618
-747
-808
-799
-825
-816
-807
-798
-790
-782
-774
-766
-758
-750
-789
-781
-767
-759
-787
-836
-827
-818
-817
-808
-799
-791
-783
-775
-767
-777
-769
-761
-699
-692
-696
-689
-682
-715
-707
-699
-692
-685
-678
-671
-699
-679
-666
-662
-758
-750
-813
-935
-1084
-1073
-1236
-1223
-1346
-1332
-1318
-1304
-1290
-1277
-1264
-1251
-1238
-1225
-1212
-1199
-1186
-1174
-1162
-1150
-1138
-1253
-1332
-1375
-1361
-1415
-1400
-1385
-1371
-1357
-1400
-1385
-1494
-1479
-1464
-1468
-1546
-1530
-1602
-1619
-1602
-1585
-1569
-1553
-1537
-1521
-1505
-1489
-1474
-1459
-1393
-1330
-1316
-1302
-1288
-1275
-1262
-1249
-1236
-1223
-1210
-1197
-1185
-1173
-1082
-1183
-1171
-1159
-1204
-1252
-1287
-1274
-1261
-1296
-1283
-1270
-1222
-1209
-1196
-1184
-1172
-1160
-1170
-1158
-1146
-1109
-1097
-1086
-1075
-1089
-1007
-996
-986
-976
-966
-956
-946
-986
-1034
-1023
-1012
-1001
-990
-980
-970
-960
-950
-940
-930
-920
-910
-900
-890
-881
-872
-863
-854
-784
-776
-768
-772
-761
-692
-685
-678
-671
-697
-690
-683
-676
-669
-623
-616
-609
-602
-595
-596
-566
-560
-554
-548
-542
-536
-530
-524
-469
-417
-412
-407
-409
-380
-376
-348
-297
-294
-291
-288
-285
-282
-260
-222
-219
-161
-99
-98
-97
-21
15
14
13
12
11
10
9
8
7
6
5
4
3
2
1
0
0
0
0
0
-1
0
0
0
39
38
37
36
35
34
44
43
117
115
143
141
163
161
159
157
155
149
224
221
218
215
259
256
294
291
288
285
199
251
248
245
242
239
236
233
230
227
224
221
218
277
274
271
309
305
301
297
294
291
288
285
363
448
443
438
433
428
423
418
413
408
403
398
394
390
386
382
378
374
370
366
362
358
354
350
346
342
338
334
330
326
322
318
314
310
306
302
362
358
354
350
366
362
358
354
350
346
342
338
334
330
326
291
288
243
240
108
46
45
44
43
42
-74
-116
-342
-338
-334
-429
-424
-642
-635
-628
-621
-614
-607
-600
-593
-587
-581
-575
-569
-563
-557
-551
-545
-539
-615
-728
-720
-712
-704
-696
-689
-612
-605
-628
-621
-614
-692
-830
-821
-938
-1054
-1043
-1032
-1021
-1044
-1033
-1022
-1011
-1189
-1177
-1154
-1142
-1130
-1118
-1106
-1094
-1083
-1278
-1265
-1252
-1239
-1226
-1249
-1236
-1275
-1262
-1276
-1263
-1250
-1237
-1224
-1211
-1198
-1228
-1215
-1202
-1189
-1177
-1280
-1238
-1225
-1212
-1199
-1238
-1261
-1227
-1214
-1201
-1188
-1176
-1138
-1126
-1149
-1137
-1125
-1113
-1056
-1063
-1134
-1122
-1110
-1126
-1088
-1077
-1066
-1055
-1044
-1033
-1022
-1011
-1000
-989
-979
-989
-1134
-1122
-1110
-1207
-1301
-1287
-1274
-1261
-1287
-1289
-1312
-1353
-1340
-1402
-1387
-1489
-1573
-1557
-1541
-1560
-1646
-1629
-1694
-1783
-1940
-1920
-2030
-2009
-2129
-2282
-2259
-2236
-2307
-2283
-2340
-2328
-2304
-2298
-2337
-2373
-2467
-2557
-2677
-2827
-2969
-2979
-3087
-3202
-3212
-3211
-3215
-3237
-3303
-3318
-3262
-3278
-3247
-3216
-3309
-3275
-3274
-3323
-3289
-3256
-3314
-3329
-3446
-3468
-3433
-3534
-3569
-3548
-3599
-3649
-3660
-3694
-3728
-3701
-3764
-3786
-3835
-3910
-3870
-3831
-3885
-3978
-3938
-3967
-4000
-3959
-3919
-3862
-3786
-3782
-3744
-3686
-3655
-3661
-3624
-3682
-3703
-3753
-3740
-3794
-3967
-3927
-3945
-4041
-4034
-3993
-3953
-3913
-3873
-3845
-3851
-3770
-3651
-3558
-3499
-3479
-3444
-3488
-3521
-3564
-3613
-3734
-3540
-3462
-3311
-3142
-3007
-2845
-2699
-2520
-2402
-2377
-2222
-2045
-1845
-1735
-1538
-1522
-1417
-1448
-1374
-1380
-1257
-1248
-1235
-1135
-1037
-1075
-1145
-1103
-1067
-930
-788
-684
-677
-685
-621
-518
-521
-466
-484
-502
-496
-514
-557
-460
-335
-346
-318
-235
-387
-249
-87
3
-139
-35
-13
-19
100
157
155
212
330
326
322
318
191
20
-29
57
101
105
212
360
483
629
873
1099
1328
1555
1780
1971
1951
2184
2367
2552
2735
2910
3005
2974
2944
3195
3438
3627
3625
3623
3688
3779
3941
4211
4414
4643
4837
5053
5257
5522
5485
5739
5975
6155
6432
6700
6783
6969
6933
6884
6806
6703
6840
6980
7215
7383
7396
7433
7428
7423
7398
7397
7322
7404
7508
7432
7652
7822
7951
7961
8156
8321
8397
8397
8350
8380
8518
8682
8822
8984
9129
9240
9422
9562
9620
9821
9875
9939
10137
10186
10296
10466
10404
10414
10352
10363
10259
10271
10352
10499
10664
10827
10988
10878
11067
11226
11311
11372
11433
11430
11546
11661
11779
11924
12039
12176
12133
12133
12269
12268
12403
12440
12578
12716
12846
12953
13021
13160
13303
13352
13493
13502
13727
13962
14230
14322
14563
14637
14592
14708
14665
14845
14768
14806
14876
14970
15040
15132
15187
15136
15017
14897
14847
14671
14744
14816
14857
14656
14482
14322
14410
14520
14456
14488
14507
14464
14562
14612
14613
14534
14553
14625
14691
14740
14644
14433
14218
14006
13802
13695
13553
13564
13370
13335
13375
13269
13187
12991
12861
12668
12477
12282
12089
11897
11755
11641
11528
11416
11377
11483
11595
11570
11644
11717
11808
11932
12055
12089
11897
11925
11923
11740
11565
11440
11501
11587
11693
11797
11900
11976
12041
11989
11964
11959
11934
11909
11689
11714
11798
11909
12012
12160
12307
12452
12327
12502
12675
12789
12954
12824
12942
13089
13165
13327
13360
13451
13524
13331
13091
13026
12916
12790
12572
12419
12363
12133
12243
12222
12304
12088
11893
11681
11452
11225
11007
10791
10589
10474
10396
10409
10461
10629
10792
10934
11082
11154
11231
11307
11445
11571
11462
11301
11340
11399
11500
11580
11564
11602
11639
11506
11521
11696
11825
11914
11731
11806
11908
11979
11910
12050
12243
12350
12363
12239
12275
12239
12262
12410
12498
12607
12651
12524
12360
12081
11947
12014
12106
12197
12231
12226
11947
11848
11847
11838
11564
11628
11622
11615
11694
11803
11905
11894
11892
11696
11478
11289
11175
11297
11036
10876
10753
10659
10695
10432
10233
10022
9821
9578
9338
9204
9118
9028
9013
8972
8952
8842
8632
8536
8459
8377
8285
8234
8189
8118
8023
7992
7981
7971
7953
8028
8126
8133
8264
8111
8127
8240
8246
8223
8419
8350
8253
8167
8190
8101
8101
8101
8019
8115
8258
8400
8328
8452
8533
8521
8695
8860
9002
9181
9383
9581
9738
9640
9787
9774
9806
9707
9609
9512
9549
9639
9542
9446
9418
9486
9496
9441
9452
9357
9187
9123
9033
8998
8960
8889
8800
8717
8666
8579
8621
8616
8605
8519
8387
8303
8219
8136
8098
8016
7979
7899
7884
7888
7987
8014
7933
7958
8055
8103
8152
8114
8078
8091
8082
8001
7920
7840
7761
7683
7606
7625
7730
7803
7875
7973
8071
8192
8241
8158
8278
8325
8241
8360
8552
8466
8381
8297
8213
8162
8080
7999
8009
8188
8393
8425
8340
8430
8519
8433
8421
8336
8271
8230
8147
8101
8019
7938
7934
7875
7920
7840
7765
7687
7610
7536
7512
7436
7361
7287
7214
7129
7060
7041
7022
6994
6923
6905
6800
6785
6717
6647
6632
6580
6514
6448
6398
6387
6398
6331
6267
6249
6195
6132
6115
6106
6097
6035
5974
5914
5927
5906
5886
5865
5825
5811
5785
5726
5713
5700
5642
5613
5564
5490
5435
5376
5322
5293
5240
5187
5135
5082
5039
4987
4922
4872
4831
4790
4742
4676
4600
4553
4526
4433
4364
4302
4266
4182
4099
4053
3978
3885
3846
3807
3768
3689
3611
3533
3482
3447
3371
3150
2891
2675
2478
2226
2110
1845
1560
1209
916
626
333
334
-32
-170
-366
-642
-635
-908
-898
-1176
-1164
-1152
-1278
-1429
-1578
-1700
-1682
-1854
-1835
-1816
-1797
-1779
-1761
-1743
-1725
-1707
-1689
-1672
-1655
-1638
-1621
-1687
-1753
-1735
-1803
-1841
-1822
-1869
-1915
-2063
-2042
-2215
-2364
-2568
-2542
-2621
-2594
-2568
-2542
-2516
-2490
-2676
-2649
-2703
-2675
-2859
-3002
-2971
-3096
-3065
-3034
-3069
-3266
-3233
-3200
-3167
-3135
-3103
-3071
-3179
-3147
-3222
-3189
-3157
-3125
-3105
-3090
-3059
-3028
-3173
-3141
-3109
-3077
-3046
-3178
-3175
-3143
-3111
-3079
-3048
-3017
-3009
-3033
-2997
-2967
-2973
-2943
-2913
-2883
-2854
-2825
-2796
-2768
-2740
-2712
-2679
-2639
-2612
-2585
-2660
-2738
-2710
-2682
-2655
-2628
-2601
-2574
-2649
-2622
-2739
-2711
-2683
-2656
-2629
-2602
-2575
-2549
-2624
-2597
-2571
-2545
-2519
-2493
-2468
-2443
-2418
-2393
-2369
-2412
-2458
-2573
-2494
-2469
-2444
-2419
-2394
-2370
-2341
-2317
-2293
-2270
-2247
-2224
-2201
-2178
-2151
-2129
-2107
-2085
-2064
-2043
-2022
-2001
-1980
-1960
-1940
-1920
-1900
-1947
-1840
-1821
-1802
-1823
-1804
-1852
-1833
-1814
-1795
-1777
-1759
-1741
-1723
-1705
-1687
-1670
-1653
-1636
-1619
-1602
-1625
-1521
-1505
-1489
-1474
-1459
-1444
-1429
-1414
-1399
-1384
-1370
-1356
-1342
-1328
-1314
-1300
-1286
-1273
-1260
-1247
-1234
-1221
-1208
-1195
-1183
-1171
-1159
-1147
-1135
-1123
-1111
-1099
-1087
-1076
-1065
-1054
-1043
-1032
-1021
-1010
-999
-989
-979
-969
-959
-949
-939
-929
-919
-909
-899
-890
-881
-872
-863
-854
-845
-836
-827
-818
-809
-800
-791
-783
-775
-767
-759
-751
-743
-735
-727
-719
-711
-703
-695
-688
-681
-674
-667
-660
-653
-646
-639
-632
-625
-618
-611
-604
-597
-591
-772
-800
-791
-783
-775
-767
-759
-751
-832
-967
-957
-947
-937
-927
-917
-907
-897
-888
-879
-870
-937
-1002
-991
-981
-971
-961
-951
-941
-931
-921
-911
-901
-891
-882
-873
-864
-855
-846
-837
-929
-1197
-1463
-1712
-1796
-1778
-1676
-1659
-1686
-1669
-1652
-1635
-1618
-1703
-1685
-1668
-1824
-1805
-1730
-1712
-1694
-1600
-1583
-1546
-1530
-1551
-1487
-1472
-1457
-1442
-1427
-1412
-1397
-1383
-1369
-1355
-1341
-1327
-1313
-1299
-1285
-1272
-1259
-1246
-1328
-1314
-1358
-1344
-1330
-1316
-1302
-1288
-1275
-1262
-1249
-1236
-1223
-1210
-1197
-1185
-1173
-1161
-1149
-1137
-1125
-1323
-1465
-1606
-1589
-1573
-1557
-1541
-1525
-1509
-1493
-1478
-1463
-1448
-1433
-1505
-1585
-1569
-1553
-1537
-1521
-1505
-1489
-1482
-1509
-1493
-1478
-1529
-1520
-1504
-1488
-1473
-1458
-1443
-1428
-1413
-1398
-1384
-1370
-1442
-1569
-1553
-1537
-1521
-1505
-1489
-1474
-1459
-1444
-1429
-1414
-1399
-1384
-1370
-1356
-1356
-1324
-1310
-1296
-1283
-1270
-1257
-1501
-1669
-1652
-1635
-1618
-1601
-1584
-1568
-1552
-1536
-1520
-1504
-1488
-1473
-1458
-1443
-1428
-1413
-1398
-1384
-1370
-1356
-1342
-1328
-1530
-1514
-1498
-1839
-1820
-1801
-1782
-1764
-1746
-1728
-1710
-1692
-1675
-1658
-1641
-1624
-1607
-1590
-1574
-1558
-1542
-1526
-1510
-1494
-1479
-1464
-1848
-1829
-1810
-2159
-2137
-2115
-2093
-2072
-2051
-2030
-2009
-1988
-1968
-1948
-1928
-1987
-2276
-2472
-2447
-2569
-2543
-2517
-2491
-2466
-2441
-2416
-2391
-2367
-2343
-2319
-2295
-2435
-2410
-2385
-2496
-2471
-2446
-2421
-2396
-2372
-2348
-2324
-2300
-2276
-2253
-2230
-2207
-2184
-2162
-2140
-2281
-2258
-2474
-2449
-2424
-2399
-2374
-2350
-2326
-2302
-2278
-2255
-2232
-2209
-2186
-2164
-2142
-2120
-2098
-2076
-2292
-2486
-2461
-2436
-2411
-2386
-2362
-2338
-2314
-2290
-2267
-2244
-2221
-2198
-2175
-2153
-2131
-2109
-2087
-2204
-2398
-2373
-2349
-2325
-2301
-2277
-2254
-2231
-2208
-2185
-2163
-2141
-2119
-2097
-2076
-2055
-2034
-2013
-2325
-2301
-2277
-2361
-2441
-2416
-2705
-2677
-2852
-2823
-2794
-2766
-2738
-2710
-2682
-2655
-2628
-2601
-2574
-2548
-2522
-2496
-2566
-2540
-2645
-2618
-2591
-2565
-2539
-2513
-2487
-2462
-2437
-2412
-2387
-2363
-2339
-2315
-2291
-2268
-2245
-2222
-2199
-2176
-2154
-2132
-2110
-2088
-2067
-2046
-2025
-2004
-1983
-1963
-1943
-1923
-2256
-2461
-2436
-2411
-2386
-2362
-2338
-2314
-2290
-2267
-2244
-2221
-2198
-2175
-2153
-2131
-2109
-2087
-2066
-2045
-2162
-2140
-2118
-2430
-2728
-2700
-2672
-2645
-2618
-2591
-2565
-2539
-2513
-2487
-2462
-2437
-2412
-2387
-2363
-2339
-2714
-2995
-2965
-2947
-2917
-2887
-2858
-2829
-2800
-2771
-2743
-2715
-2687
-2660
-2633
-2606
-2579
-2553
-2723
-2695
-3074
-3257
-3471
-3436
-3401
-3366
-3332
-3298
-3264
-3231
-3198
-3165
-3133
-3101
-3069
-3038
-3007
-2976
-2946
-2916
-3186
-3438
-3403
-3368
-3334
-3300
-3266
-3233
-3200
-3167
-3135
-3103
-3071
-3040
-3009
-2978
-2948
-2918
-2888
-2859
-2830
-2801
-2772
-2744
-2716
-3027
-2996
-3251
-3218
-3185
-3153
-3121
-3089
-3058
-3027
-2996
-2966
-2936
-2906
-2876
-2847
-2818
-2789
-2761
-2733
-2705
-2677
-2905
-2875
-2943
-2913
-2883
-2854
-2825
-2796
-2768
-2740
-2712
-2684
-2657
-2630
-2603
-2576
-2550
-2524
-2498
-2472
-2447
-2422
-2397
-2373
-2349
-2325
-2301
-2277
-2254
-2231
-2491
-2466
-2497
-2472
-2447
-2422
-2397
-2373
-2349
-2325
-2301
-2277
-2254
-2231
-2208
-2185
-2163
-2141
-2119
-2097
-2076
-2138
-2157
-2135
-2113
-2091
-2070
-2049
-2028
-2007
-1986
-1966
-1946
-1926
-2146
-2168
-2146
-2124
-2102
-2080
-2059
-2038
-2017
-2211
-2378
-2354
-2330
-2306
-2282
-2259
-2236
-2213
-2190
-2211
-2188
-2170
-2148
-2126
-2104
-2082
-2061
-2040
-2019
-1998
-1978
-1958
-1938
-1918
-1875
-1907
-1887
-1868
-1849
-1830
-1811
-1792
-1774
-1756
-1738
-1720
-1702
-1684
-1667
-1650
-1633
-1616
-1599
-1582
-1566
-1550
-1534
-1518
-1502
-1486
-1471
-1456
-1441
-1426
-1638
-1621
-1936
-1916
-1896
-1877
-1858
-1839
-1820
-1801
-1782
-1764
-1746
-2009
-1988
-1968
-1948
-1928
-1908
-1888
-1869
-1850
-1831
-1812
-1793
-1775
-1757
-2075
-2265
-2242
-2219
-2196
-2174
-2152
-2130
-2108
-2086
-2065
-2044
-2023
-2002
-1981
-1961
-2287
-2572
-2827
-2798
-2769
-2741
-2920
-2890
-3168
-3136
-3104
-3072
-3041
-3097
-3289
-3256
-3223
-3190
-3158
-3126
-3094
-3063
-3032
-3001
-2970
-2940
-2910
-2880
-2851
-3075
-3327
-3293
-3260
-3227
-3194
-3162
-3130
-3098
-3066
-3035
-3004
-2973
-3289
-3663
-3784
-3859
-3820
-3781
-3743
-4017
-4294
-4432
-4387
-4343
-4299
-4255
-4460
-4617
-4570
-4622
-4757
-4709
-4661
-4614
-4879
-4830
-5043
-5222
-5169
-5403
-5348
-5567
-5773
-5715
-5809
-6004
-5943
-5883
-5993
-6005
-5944
-5891
-5842
-5784
-5759
-5701
-5643
-5586
-5530
-5523
-5545
-5489
-5441
-5422
-5413
-5370
-5345
-5291
-5238
-5185
-5133
-5081
-5030
-4979
-4929
-4996
-5039
-5075
-5054
-5003
-5110
-5210
-5237
-5357
-5303
-5249
-5196
-5143
-5028
-4870
-4759
-4711
-4556
-4510
-4357
-4167
-4125
-3937
-3774
-3736
-3552
-3370
-3164
-2960
-2930
-2728
-2551
-2392
-2368
-2149
-1932
-1912
-1708
-1652
-1635
-1618
-1481
-1294
-1281
-1268
-1255
-1093
-1082
-938
-928
-746
-654
-475
-356
-381
-231
-98
49
48
47
46
45
44
43
42
187
256
324
320
329
328
324
563
557
820
931
921
1180
1379
1634
1886
1867
2117
2364
2609
2582
2556
2530
2504
2478
2453
2428
2403
2670
2918
3229
3515
3745
4071
4313
4269
4524
4904
5215
5569
5921
5861
6209
6553
6894
7208
7561
7635
7870
8175
8405
8704
9042
9266
9423
9611
9941
10315
10685
11052
11303
11514
11794
11675
12002
12307
12560
12811
13059
13305
13525
13766
14005
14319
14559
14767
14901
15153
15355
15480
15637
15876
16041
16234
16497
16757
16936
17113
17318
17498
17657
17857
18033
18207
18378
18480
18699
18937
19140
19183
19464
19719
19971
20225
20416
20631
20844
21055
21264
21471
21724
21926
22126
22402
22638
22799
23068
23212
23399
23614
23876
24136
24362
24538
24693
24914
25061
25279
25420
25560
25420
25517
25639
25785
25754
25869
25983
26119
26302
26513
26729
26936
27066
26795
26649
26490
26380
26199
26251
26369
26440
26540
26591
26829
27035
27144
27219
27274
27352
27489
27600
27750
27850
27877
27860
27870
27999
28159
28275
28347
28505
28703
28855
29026
29188
29249
29350
29363
29329
29251
29136
29164
29306
29393
29545
29696
29582
29589
29713
29722
29605
29558
29674
29758
29605
29542
29432
29323
29300
29294
29212
29200
28972
29035
29164
29235
29368
29519
29603
29755
29861
29902
30047
29989
29947
29851
29813
29867
29755
29483
29248
29023
28758
28556
28257
27997
27820
27746
27656
27600
27544
27417
27324
27384
27495
27643
27761
27787
27887
28057
28226
28423
28472
28659
28826
28889
28864
28836
28740
28713
28663
28444
28250
28183
28116
27964
28042
28145
28110
28161
27992
27887
27988
28071
28003
28139
28223
27991
27761
27476
27209
26931
26670
26483
26291
26068
25881
25853
25826
25685
25573
25407
25304
25148
24889
24746
24644
24618
24592
24566
24627
24713
24726
24811
24714
24707
24814
24746
24928
25105
25328
25378
25394
25201
25252
25231
25427
25320
25376
25295
25470
25644
25816
25745
25854
25850
25907
25989
25799
25659
25398
25380
25358
25175
25042
24858
24865
24824
24785
24769
24777
24792
24821
24872
25034
25074
25136
25340
25519
25648
25727
25580
25779
25898
26046
26110
26233
26445
26636
26772
27002
27206
27360
27561
27666
27842
28064
28187
28285
28366
28293
28390
28467
28502
28581
28614
28444
28399
28398
28391
28390
28431
28511
28587
28636
28640
28689
28815
28817
28864
28983
29028
29099
29224
29309
29357
29551
29689
29825
29959
30066
30198
30302
30420
30248
30170
30244
30135
30074
29927
29658
29530
29234
28923
28754
28587
28308
28130
28017
27905
27807
27758
27735
27536
27429
27275
27108
27023
26934
26830
26889
26908
26849
26881
26867
27007
27139
27203
27146
27124
27108
26936
26658
26512
26453
26395
26361
26202
25985
25988
25947
25814
25648
25437
25239
25106
24888
24737
24674
24498
24598
24609
24578
24556
24460
24241
24081
23976
23976
23888
23909
23758
23520
23545
23570
23566
23562
23559
23395
23231
23241
23257
23257
23267
23277
23208
23075
23116
23145
22913
22955
22873
22877
22932
22702
22758
22860
22790
22561
22512
22610
22707
22741
22513
22588
22581
22638
22729
22796
22833
22893
22947
22972
22742
22514
22461
22449
22437
22385
22362
22138
22171
22273
22050
21829
21968
21837
21660
21639
21603
21582
21618
21580
21542
21505
21613
21615
21617
21400
21404
21189
21195
21212
21218
21224
21196
21202
21231
21018
20986
20744
20641
20584
20477
20422
20356
20268
20349
20307
20457
20629
20799
20850
20950
20857
20880
20679
20607
20384
20399
20228
20143
19941
19673
19613
19557
19361
19310
19319
19337
19355
19316
19461
19470
19496
19300
19125
18931
18931
18898
18712
18666
18514
18328
18144
18117
17935
17747
17439
17136
16964
16630
16463
16298
16134
15972
15684
15513
15243
15090
14938
14788
14639
14492
14346
14202
14059
13769
13542
13406
13271
13138
13006
12875
12702
12556
12430
12305
12245
12122
12000
11879
11649
11532
11416
11301
11187
11075
10964
10854
10745
10637
10497
10455
10494
10388
10284
10181
10079
9978
9878
9779
9681
9584
9488
9393
9298
9204
9111
9019
8928
8838
8749
8661
8574
8488
8403
8318
8106
8024
7943
7863
7616
7539
7463
7388
7314
7240
7078
7007
6936
6866
6797
6728
6660
6593
6316
6252
6189
6127
6065
6004
5943
5883
5824
5765
5707
5649
5592
5536
5480
5425
5370
5316
5262
5209
5156
5104
5052
5001
4950
4940
4679
4632
4585
4539
4493
4448
4403
4358
4314
4270
4025
4001
3960
3920
3911
3871
3899
4004
3963
3923
3883
3844
3805
3766
3728
3690
3653
3616
3579
3543
3507
3471
3436
3401
3366
3332
3298
3264
3231
3198
3165
3133
3101
3069
3038
3007
2976
2946
2916
2886
2857
2828
2799
2770
2742
2714
2686
2659
2655
2628
2601
2735
2758
2730
2797
2769
2741
2713
2685
2658
2631
2604
2577
2551
2628
2757
2729
2910
2975
2945
2915
2885
2856
2827
2798
2769
2741
2713
2685
2658
2631
2604
2657
2630
2667
2640
2673
2646
2619
2592
2566
2540
2514
2547
2521
2495
2470
2445
2420
2395
2371
2347
2323
2299
2275
2252
2229
2206
2183
2161
2217
2194
2223
2200
2248
2225
2202
2179
2157
2091
2070
2049
2028
2007
1986
1966
1946
1926
1906
1886
1867
1848
1829
1810
1791
1773
1755
1737
1719
1701
1683
1666
1649
1632
1615
1598
1582
1566
1550
1534
1518
1502
1517
1360
1346
1332
1318
1304
1290
1277
1264
1251
1238
1225
1212
1199
1186
1174
1162
1124
1112
956
946
936
926
916
906
896
887
878
869
860
851
842
833
824
815
806
797
789
781
773
765
847
876
867
659
652
645
544
538
532
526
520
514
508
502
496
491
486
481
476
471
466
461
456
451
446
441
436
431
426
421
416
411
406
401
396
392
388
384
380
376
372
368
364
360
356
352
348
344
340
336
332
328
324
320
316
312
308
304
300
296
293
290
287
284
281
278
275
290
255
252
249
246
243
240
237
234
231
228
225
222
219
216
213
210
207
204
201
198
196
194
192
190
188
186
191
239
236
233
230
227
224
221
218
215
212
209
206
203
200
197
195
193
191
189
187
185
183
181
179
177
175
173
171
169
167
165
163
161
159
157
155
153
151
149
147
145
143
141
139
137
135
133
131
129
127
125
123
121
119
117
115
113
111
109
107
105
103
101
99
98
97
96
95
94
93
92
91
90
89
88
87
86
85
84
83
82
81
80
79
78
77
76
75
74
73
72
71
70
69
68
67
66
65
64
63
62
61
60
59
58
57
56
55
54
53
52
51
50
49
48
47
46
45
44
43
42
41
40
39
38
37
36
35
34
33
32
31
30
29
28
27
26
25
24
23
22
21
20
19
18
17
16
15
14
13
12
11
10
9
8
7
6
5
4
3
2
1
0
0
0
0
0
0
0
0
0
0
0
0
0
0
0
0
0
0
0
0
0
0
0
0
0
0
0
0
0
0
0
0
0
0
0
0
0
0
0
0
0
0
0
0
0
0
0
0
0
0
0
0
0
0
0
0
0
0
0
0
0
0
0
0
0
0
0
0
0
0
0
0
0
0
0
0
0
0
0
0
0
0
0
0
0
0
0
0
0
0
0
0
0
0
0
0
0
0
0
0
0
0
0
0
0
0
0
0
0
0
0
0
0
0
0
0
0
0
0
0
0
0
0
0
0
0
0
0
0
0
0
0
0
0
0
0
0
0
0
0
0
0
0
0
0
0
0
0
0
0
0
0
0
0
0
0
0
0
0
0
0
0
0
0
0
0
0
0
0
0
0
0
0
0
0
0
0
0
0
0
0
0
0
0
0
0
0
0
0
0
0
0
0
0
0
0
0
0
0
0
0
0
0
0
0
0
0
0
0
0
0
0
0
0
0
0
0
0
0
0
0
0
0
0
0
0
0
0
0
0
0
0
0
0
0
0
0
0
0
0
0
0
0
0
0
0
0
0
0
0
0
0
0
0
0
0
0
0
0
0
0
0
0
0
0
0
0
0
0
0
0
0
0
0
0
0
0
0
0
0
0
0
0
0
0
0
0
0
0
0
0
0
0
0
0
0
0
0
0
0
0
0
0
0
0
0
0
0
0
0
0
0
0
0
0
0
0
0
0
0
0
0
0
0
0
0
0
0
0
0
0
0
0
0
0
0
0
0
0
0
0
0
0
0
0
0
0
0
0
0
0
0
0
0
0
0
0
0
0
0
0
0
0
0
0
0
0
0
0
0
0
0
0
0
0
0
0
0
0
0
0
0
0
0
0
0
0
0
0
0
0
0
0
0
0
0
0
0
0
0
0
0
0
0
0
0
0
0
0
0
0
0
0
0
0
0
0
0
0
0
0
0
0
0
0
0
0
0
0
0
0
0
0
0
0
0
0
0
0
0
0
0
0
0
0
0
0
0
0
0
0
0
0
0
0
0
0
0
0
0
0
0
0
0
0
0
0
0
0
0
0
0
0
0
0
0
0
0
0
0
0
0
0
0
0
0
0
0
0
0
0
0
0
0
0
0
0
0
0
0
0
-182
-92
-27
22
-89
-88
-87
-86
-85
-104
-102
-245
-242
-297
-352
-348
-344
-340
-336
-332
-328
-406
-467
-462
-457
-452
-447
-442
-437
-432
-427
-517
-511
-580
-681
-795
-848
-905
-895
-886
-961
-1043
-1032
-1021
-1010
-999
-989
-1052
-1106
-1186
-1295
-1282
-1355
-1341
-1390
-1376
-1362
-1348
-1334
-1320
-1318
-1437
-1411
-1491
-1476
-1461
-1446
-1534
-1621
-1604
-1587
-1667
-1650
-1582
-1665
-1797
-1920
-1900
-1880
-1968
-2056
-2035
-2153
-2131
-2109
-2087
-2066
-2045
-2024
-2138
-2251
-2234
-2211
-2188
-2166
-2150
-2087
-2185
-2128
-2153
-2055
-2030
-1996
-1866
-1813
-1718
-1696
-1742
-1724
-1606
-1480
-1181
-1169
-1157
-1145
-1133
-941
-708
-700
-692
-544
-355
-158
-156
-154
-152
-150
-148
-146
115
172
170
168
233
323
319
315
372
323
352
348
344
208
33
39
-78
-193
-281
-439
-494
-446
-530
-608
-661
-617
-499
-479
-363
-254
-108
-109
-86
-24
186
190
291
321
342
316
387
549
799
981
921
830
874
1151
1395
1677
1660
1918
1898
2175
2410
2642
2881
3217
3549
3878
4108
4335
4602
4890
5206
5416
5782
6103
6492
6794
7090
7440
7714
8057
8237
8477
8624
8537
8785
9067
9200
9354
9573
9849
9948
10257
10570
10784
10947
10963
11206
11401
11629
11940
12127
12328
12602
12873
12744
13024
13217
13543
13810
14079
14288
14488
14797
14978
15139
15321
15258
15278
15384
15417
15547
15670
15726
15928
16088
16146
16272
16348
16475
16569
16740
16823
16769
16773
16882
16912
16986
17139
17259
16928
16684
16683
16622
16547
16520
16432
16142
15955
15751
15477
15450
15497
15467
15469
15541
15570
15554
15354
15393
15379
15315
15263
15122
15008
14968
14890
14643
14497
14518
14595
14671
14717
14827
14826
14925
15009
14883
14781
14776
14651
14646
14420
14311
14403
14414
14272
14132
14259
14331
14330
14448
14590
14622
14896
15016
15012
14918
14885
14893
14881
14849
14837
14825
14754
14743
14692
14666
14454
14284
14219
14076
14071
13865
13818
13774
13728
13504
13472
13271
13078
12842
12653
12488
12213
12013
11751
11584
11338
11114
10964
10744
10531
10298
10070
9884
9814
9724
9544
9324
9178
9159
9171
9172
9012
8758
8573
8479
8433
8348
8362
8401
8450
8457
8465
8543
8601
8628
8775
8909
9041
9100
9049
8808
8612
8688
8762
8848
8918
8943
9024
9104
9183
9292
9369
9446
9511
9359
9344
9289
9311
9435
9558
9738
9916
10113
10308
10496
10711
10953
11107
11287
11466
11673
11820
12021
12107
12150
12297
12346
12430
12523
12602
12649
12665
12709
12742
12624
12620
12617
12379
12217
12083
11895
11726
11625
11551
11503
11374
11318
11022
10729
10609
10320
10062
9949
9939
9899
9898
10020
10141
10261
10343
10229
9988
9906
9723
9598
9504
9270
8993
8791
8592
8479
8534
8655
8777
8854
8931
8979
8889
8874
8884
8871
8910
9124
9418
9388
9679
9938
10217
10114
10421
10695
10837
11106
11229
11374
11591
11787
11964
12157
12272
12476
12464
12705
12874
12682
12661
12759
12693
12688
12731
12788
13045
13300
13521
13640
13663
13830
13980
14098
14135
14118
13882
13778
13686
13532
13376
13349
13153
13128
12912
12864
12996
12865
12913
13053
13026
13118
13271
13071
12857
12645
12452
12344
12237
12102
11967
11987
12034
12055
11907
11821
11960
12026
12205
12347
12319
12285
12350
12295
12379
12468
12622
12803
13004
13022
12867
13037
13229
13447
13639
13502
13534
13603
13701
13892
14204
14538
14738
14929
14964
15260
15336
15604
15785
15964
16050
16140
16200
16328
16574
16723
16866
16888
17019
17273
17526
17562
17611
17632
17612
17428
17414
17344
17215
17160
17123
17187
17317
17452
17586
17662
17746
17725
17701
17390
17138
16833
16603
16501
16338
16323
16228
15932
15768
15544
15425
15335
15163
15162
15144
15228
15142
15196
15195
14909
14627
14496
14345
14134
13925
13703
13565
13383
13217
13293
13395
13438
13481
13554
13524
13380
13418
13413
13498
13665
13469
13389
13154
12929
12791
12655
12722
12496
12408
12401
12357
12346
12351
12277
12154
12161
12198
12285
12346
12425
12457
12259
12406
12480
12482
12527
12680
12688
12833
12951
13068
13246
13416
13674
13904
14109
13967
14074
14138
14213
14359
14537
14822
15170
15018
15190
15037
15273
15422
15697
15993
16275
16566
16778
17040
17296
17122
17453
17643
17964
18192
18259
18470
18588
18765
18998
19233
19410
19684
19840
20110
20376
20574
20817
21087
21133
21371
21157
20945
21027
21242
21455
21507
21487
21409
21194
21154
20983
20772
20564
20358
20154
19952
19752
19818
19797
19789
19738
19540
19700
19390
19286
19270
19089
19116
19290
19363
19589
19392
19522
19466
19577
19392
19197
19004
19167
19353
19545
19488
19292
19198
19066
19111
19157
19368
19551
19615
19664
19467
19272
19267
19541
19740
19937
20169
20217
20438
20663
20898
21098
21317
21428
21472
21592
21737
21789
22028
21957
21827
21608
21391
21194
20959
20845
20801
20853
20804
20688
20750
20542
20686
20478
20273
20070
19869
19670
19473
19278
19085
18893
18703
18604
18464
18279
18096
17914
17734
17556
17380
17206
17033
16862
16693
16525
16359
16368
16263
16255
16092
15930
16167
16005
15985
15824
15665
15508
15432
15357
15203
15050
14899
14749
14601
14454
14309
14165
14023
13882
13743
13605
13468
13395
13392
13257
13124
12992
12861
12732
12604
12477
12352
12228
12105
11983
11863
11744
11626
11509
11393
11278
11165
11053
10942
10832
10723
10615
10508
10402
10297
10193
10090
9989
9889
9790
9692
9594
9497
9401
9306
9212
9119
9007
8916
9099
9007
8916
8826
8737
8649
8562
8476
8391
8307
8223
8140
8058
7977
7897
7817
7738
7660
7583
7507
7431
7356
7282
7209
7136
7064
6993
6923
6853
6784
6716
6648
6581
6515
6449
6384
6320
6256
6193
6131
6069
6008
5947
5887
5828
5769
5711
5653
5596
5539
5483
5428
5373
5319
5265
5212
5159
5107
5055
5004
4953
4903
4853
4804
4755
4707
4659
4612
4565
4519
4473
4428
4383
4339
4295
4252
4209
4166
4124
4082
4041
4000
3959
3919
3879
3840
3801
3762
3724
3686
3649
3612
4024
4048
4007
3966
3926
3886
3847
3808
3769
3731
3693
3656
3619
3582
3546
3510
3474
3439
3404
3369
3311
3239
3162
3130
3098
3261
3093
3152
3120
3029
2815
2786
2758
2730
2702
2674
2647
2620
2593
2567
2541
2515
2489
2464
2439
2414
2389
2365
2341
2317
2293
2270
2247
2224
2201
2178
2156
2134
2112
2090
2069
2048
2027
2006
1985
1965
1945
1925
1905
1885
1866
1847
1828
1809
1790
1772
1754
1736
1718
1700
1682
1665
1648
1631
1614
1597
1581
1565
1549
1533
1517
1501
1485
1470
1455
1440
1425
1410
1395
1381
1367
1353
1339
1325
1311
1297
1284
1271
1258
1245
1232
1219
1206
1193
1181
1169
1157
1145
1133
1121
1109
1097
1086
1075
1064
1053
1042
1031
1020
1009
998
988
978
968
958
948
938
928
918
908
898
889
880
871
862
853
844
835
826
817
808
799
791
783
775
767
759
751
743
735
727
719
711
703
695
688
681
674
667
660
653
646
639
632
625
618
611
604
597
591
585
579
573
567
561
555
549
543
537
531
525
519
513
507
501
495
490
485
480
475
470
465
460
455
450
445
440
435
430
425
420
415
410
405
400
395
391
387
383
379
375
371
367
363
359
355
351
347
343
339
335
331
327
323
319
315
311
307
303
299
296
293
290
287
284
281
278
275
272
269
266
263
260
257
254
251
248
245
242
239
236
233
230
227
224
221
218
215
212
209
206
203
200
197
195
193
191
189
187
185
183
181
179
177
175
173
171
169
167
165
163
161
159
157
155
153
151
149
147
145
143
141
139
137
135
133
131
129
127
125
123
121
119
117
115
113
111
109
107
105
103
101
99
98
97
96
95
94
93
92
91
90
89
88
87
86
85
84
83
82
81
80
79
78
77
76
75
74
73
72
71
70
69
68
67
66
65
64
63
62
61
60
59
58
57
56
55
-78
-264
-261
-307
-587
-834
-825
-816
-807
-1083
-1390
-1376
-1362
-1348
-1334
-1320
-1306
-1292
-1279
-1266
-1358
-1344
-1330
-1316
-1302
-1288
-1275
-1262
-1249
-1236
-1223
-1210
-1197
-1185
-1173
-1161
-1149
-1137
-1125
-1113
-1101
-1089
-1078
-1067
-1056
-1045
-1034
-1023
-1012
-1001
-990
-980
-970
-960
-950
-940
-930
-920
-910
-900
-890
-881
-872
-863
-854
-845
-836
-827
-818
-809
-800
-791
-783
-775
-767
-759
-751
-743
-735
-727
-719
-711
-703
-695
-688
-681
-674
-667
-660
-653
-646
-639
-632
-625
-618
-611
-604
-597
-591
-585
-579
-573
-567
-561
-555
-549
-543
-537
-531
-525
-519
-513
-507
-501
-495
-490
-485
-480
-475
-470
-465
-460
-455
-450
-445
-440
-435
-430
-425
-420
-415
-410
-405
-400
-395
-391
-387
-383
-379
-375
-371
-367
-363
-359
-355
-351
-347
-343
-339
-335
-331
-327
-323
-319
-315
-311
-307
-303
-299
-296
-293
-290
-287
-284
-281
-278
-275
-272
-269
-266
-263
-260
-257
-254
-251
-248
-245
-242
-239
-236
-233
-230
-227
-224
-221
-218
-215
-212
-209
-206
-203
-200
-197
-195
-193
-191
-189
-187
-185
-183
-181
-179
-177
-175
-173
-171
-169
-167
-165
-163
-161
-159
-157
-155
-153
-151
-149
-147
-145
-143
-141
-139
-137
-135
-133
-131
-129
-127
-125
-123
-121
-119
-117
-115
-113
-111
-109
-107
-105
-103
-101
-99
-98
-97
-96
-95
-94
-93
-92
-91
-90
-89
-88
-87
-86
-85
-84
-83
-82
-81
-80
-79
-78
-77
-76
-75
-74
-73
-72
-71
-70
-69
-68
-67
-66
-65
-64
-63
-62
-61
-60
-59
-58
-57
-56
-55
-54
-53
-52
-51
-50
-49
-48
-47
-46
-45
-44
-43
-42
-41
-40
-39
-38
-37
-36
-35
-34
-33
-32
-31
-30
-29
-28
-27
-26
-25
-24
-23
-22
-21
-20
-19
-18
-17
-16
-15
-14
-13
-12
-11
-10
-9
-8
-7
-6
-5
-4
-3
-2
-1
0
0
0
0
0
0
0
0
0
0
0
0
0
0
0
0
0
0
0
0
0
0
0
0
0
0
0
0
0
0
0
0
0
0
0
0
0
0
0
0
0
0
0
0
90
28
-210
-207
-403
-449
-389
-184
-190
-226
-152
-107
-105
-101
-136
-134
-133
5
4
292
476
481
541
536
603
540
628
604
643
683
505
420
360
418
458
558
593
661
726
745
788
863
962
1043
1032
1098
1162
1223
1263
1307
1350
1443
1558
1624
1767
1911
2098
2294
2404
2563
2721
2910
3095
3280
3422
3634
3741
3871
3900
3795
3802
3817
3741
3735
3842
3839
3781
3756
3682
3632
3570
3633
3663
3656
3553
3574
3562
3678
3714
3900
3978
4148
4004
4096
4131
4216
4325
4356
4522
4606
4530
4527
4749
4871
4867
4923
5075
5051
5030
5144
5161
5133
5150
5234
5426
5731
5877
6148
6357
6651
6934
7201
7381
7658
7860
7864
8096
8137
8423
8389
8395
8491
8456
8517
8583
8678
8785
8880
8907
8933
9053
9269
9517
9666
9884
9826
10071
10060
10139
10037
10137
10362
10544
10612
10752
10910
11019
11000
11206
11353
11434
11413
11272
11222
11287
11542
11650
11795
11904
12137
12305
12191
12074
12039
12139
12274
12346
12540
12610
12809
12644
12499
12643
12842
12951
13058
13216
13351
13438
13595
13528
13526
13640
13801
13905
13768
13686
13639
13631
13608
13640
13681
13722
13924
13995
14158
14337
14514
14689
14876
15104
15351
15567
15675
15820
15965
16132
16320
16506
16541
16520
16571
16583
16696
16878
17124
17328
17497
17541
17708
17814
17806
17725
17623
17617
17698
17669
17542
17628
17647
17666
17579
17685
17789
17878
17847
18006
18094
18095
18245
18355
18479
18554
18580
18445
18545
18668
18680
18627
18613
18569
18300
18171
18090
18057
17897
17772
17724
17714
17435
17245
17037
16855
16927
16764
16579
16322
16240
16019
15968
15751
15708
15733
15679
15667
15736
15592
15598
15623
15781
15693
15638
15564
15504
15546
15628
15555
15619
15425
15376
15433
15409
15468
15507
15661
15695
15654
15700
15754
15787
15520
15434
15342
15320
15298
15373
15529
15601
15616
15530
15523
15514
15503
15587
15645
15599
15774
16022
16153
16138
16173
16213
16285
16313
16448
16444
16403
16415
16374
16412
16534
16520
16638
16840
16963
16976
16898
16814
16688
16629
16593
16740
16918
17015
17136
17231
17373
17519
17447
17643
17915
18110
18446
18663
18722
18943
19113
19215
19384
19361
19445
19472
19449
19518
19706
19718
19857
19825
19746
19682
19632
19838
19963
20097
20178
20244
20473
20727
20961
21139
21288
21474
21604
21923
22191
22448
22752
22767
22720
22880
23035
23074
23203
23370
23515
23749
23752
23754
23951
23981
23962
23991
23898
23917
23882
23836
23830
24044
24270
24417
24344
24239
24290
24430
24343
24317
24269
24350
24334
24217
24119
24133
23845
23841
23484
23299
23132
22951
22749
22403
22229
21882
21510
21198
21002
20932
20965
21030
20840
20599
20430
20427
20366
20187
20166
20164
20113
20180
20219
20160
20075
20076
20024
20177
20098
20312
20457
20630
20850
20899
21026
21188
21346
21401
21421
21430
21521
21626
21834
21852
22018
22295
22569
22803
23071
23307
23468
23643
23807
23947
24067
24258
24424
24611
24773
24901
25027
24894
24929
25001
25159
25136
25123
25119
25250
25342
25204
25328
25253
25326
25178
25032
25061
24934
24717
24401
24357
24249
23919
23728
23451
23129
22919
22891
22823
22750
22725
22929
23029
23273
23363
23466
23705
23759
23818
23741
23690
23741
23714
23722
23859
23945
23721
23568
23453
23322
23201
23005
22887
22625
22457
22345
22089
22032
21673
21628
21577
21377
21299
21173
21117
21001
21033
21171
21164
21266
21267
21352
21452
21497
21662
21852
21978
22051
22175
22298
22391
22506
22564
22599
22633
22673
22824
22920
22926
23084
23177
23277
23279
23352
23238
23306
23277
23189
23382
23349
23398
23350
23442
23581
23718
23817
23730
23724
23861
23979
23921
24091
24128
24300
24323
24434
24498
24604
24691
24841
24993
25032
25159
25240
25269
25325
25372
25493
25492
25588
25532
25584
25623
25587
25449
25415
25408
25392
25471
25504
25609
25638
25761
25931
26109
26175
26312
26247
26201
26155
26062
26057
25958
25892
25793
26009
25900
25740
25696
25548
25498
25551
25486
25532
25363
25356
25272
25456
25382
25456
25387
25353
25354
25357
25461
25512
25378
25262
25314
25199
25149
25116
25131
25106
25184
25323
25398
25484
25547
25677
25647
25703
25703
25554
25574
25603
25669
25649
25665
25767
25867
25851
25751
25691
25545
25319
25349
25193
25106
24944
24901
24689
24789
24794
24762
24715
24577
24326
24374
24457
24681
24630
24667
24717
24761
24610
24531
24484
24374
24334
24173
24018
23953
24068
23950
23971
23959
24033
24060
24149
24261
24372
24475
24528
24635
24702
24556
24571
24541
24516
24491
24506
24527
24502
24484
24514
24554
24448
24371
24255
24173
24065
23936
23864
23863
23793
23715
23681
23571
23492
23454
23331
23185
23108
23032
22982
22869
22720
22673
22584
22488
22410
22224
22102
21996
21807
21697
21526
21366
21160
20864
20563
20321
20184
20087
19791
19474
19116
18846
18613
18397
18149
17980
17653
17365
17112
16829
16518
16241
15999
15727
15342
15083
14795
14646
14338
14046
13813
13481
13179
12869
12562
12258
12079
11972
11802
11749
11609
11449
11282
11195
11069
11025
11067
11077
11010
10886
10780
10814
10726
10734
10768
10660
10695
10766
10820
10772
10764
10842
10898
10921
10999
11059
11142
11107
11118
11074
11102
11097
11146
11261
11087
11035
10926
10845
10756
10707
10771
10827
10841
10838
10852
10841
10818
10636
10647
10705
10626
10428
10255
10084
9994
9894
9788
9869
10030
10001
10022
10124
10191
10242
10366
10275
10264
10161
9969
9864
9735
9637
9540
9444
9349
9255
9162
9070
8979
8889
8800
8711
8623
8536
8450
8365
8281
8198
8115
8033
7952
7872
7793
7714
7807
7732
7654
7577
7501
7425
7350
7276
7203
7040
6969
6899
6755
6687
6615
6505
6439
6374
6310
6246
6183
6121
6059
5998
5937
5877
5818
5759
5701
5643
5586
5530
5474
5419
5364
5310
5256
5261
5148
5096
5044
4993
4943
4893
4844
4795
4747
4699
4651
4604
4557
4511
4465
4420
4375
4331
4287
4244
4229
4186
4095
4054
4013
3972
3932
3892
3853
3814
3775
3737
3699
3661
3624
3587
3551
3515
3479
3350
3294
3175
3073
3042
3011
2980
2950
2945
2939
2909
2879
2850
2821
2792
2764
2736
2708
2680
2653
2626
2599
2572
2546
2563
2537
2511
2408
2383
2359
2335
2311
2287
2264
2241
2218
2195
2173
2019
1998
1934
1914
1819
1800
1738
1720
1702
1637
1539
1523
1507
1491
1476
1461
1446
1431
1416
1401
1386
1372
1358
1344
1330
1161
1119
1107
1095
1084
1073
1062
1051
1040
1029
1018
1007
996
986
976
966
956
946
936
926
770
659
652
645
638
631
624
617
610
603
596
590
584
578
572
566
560
554
548
542
536
530
442
250
247
244
241
238
235
232
229
226
223
220
217
136
-19
-18
-17
-16
-15
-14
-13
-12
-11
-10
-9
-218
-416
-411
-406
-401
-482
-492
-487
-482
-477
-472
-467
-462
-451
-446
-531
-525
-519
-513
-507
-501
-495
-490
-485
-480
-470
-385
-381
-377
-373
-369
-365
-361
-357
-353
-250
-247
-209
-206
-203
-200
-197
-195
-193
-191
-189
-187
-185
-183
-181
-179
-177
-89
37
36
35
34
33
32
31
30
29
28
27
26
25
24
23
22
21
20
19
18
17
16
15
14
13
12
11
10
9
8
7
6
5
35
147
145
143
141
139
137
135
133
131
129
127
125
123
121
119
117
115
113
111
109
107
105
103
101
99
98
97
96
95
94
93
92
91
90
176
174
250
247
220
287
284
281
278
275
272
269
266
263
260
257
254
251
248
245
242
239
236
233
230
227
311
307
303
299
422
417
412
407
402
397
393
389
385
381
377
373
369
365
361
357
326
351
347
346
342
338
334
330
326
322
318
314
310
306
302
298
295
292
289
286
283
280
277
274
271
268
265
262
259
256
253
250
247
244
241
238
235
232
229
226
223
220
217
214
211
208
205
202
199
197
293
290
423
418
413
408
403
398
394
604
755
901
891
882
873
864
855
846
837
828
819
810
801
792
784
776
768
760
752
938
998
988
978
968
958
948
938
928
918
908
898
889
880
871
862
853
844
835
826
817
808
924
867
858
849
840
831
822
813
804
795
787
779
771
763
755
747
739
731
723
715
707
586
580
543
537
531
525
519
513
507
501
495
490
485
480
475
470
465
460
455
450
445
440
435
430
425
420
415
410
405
400
395
391
387
383
379
375
550
436
431
426
421
416
411
406
401
396
392
388
384
380
376
575
533
527
521
515
509
503
497
492
487
482
477
472
467
462
457
530
604
597
727
719
711
703
695
688
681
674
667
660
653
646
639
632
625
618
611
604
597
591
585
579
573
567
561
555
549
543
537
531
525
519
513
507
501
495
490
485
480
475
470
465
460
455
450
459
317
380
376
591
585
579
573
567
561
555
549
543
620
657
650
643
636
629
622
615
608
601
594
588
582
576
570
564
558
552
546
540
534
528
522
411
347
343
339
335
431
426
498
493
488
483
478
473
468
463
458
453
448
443
438
433
428
462
519
513
507
501
495
490
485
480
475
470
465
460
455
450
445
440
435
430
425
420
415
410
405
400
395
391
241
238
-14
-13
-12
-11
-10
-9
-8
-7
-6
-5
-4
-3
-2
-1
0
-251
-440
-435
-430
-425
-420
-415
-410
-405
-400
-395
-391
-387
-383
-379
-375
-371
-367
-363
-359
-402
-397
-573
-567
-561
-555
-549
-543
-537
-531
-525
-519
-513
-507
-501
-495
-490
-485
-682
-743
-735
-727
-719
-711
-703
-695
-688
-681
-674
-667
-660
-653
-646
-639
-632
-625
-618
-611
-604
-597
-591
-585
-643
-604
-597
-591
-585
-579
-573
-567
-561
-555
-549
-543
-537
-531
-525
-519
-513
-507
-501
-495
-490
-430
-393
-392
-388
-372
-368
-364
-360
-356
-352
-348
-344
-340
-336
-332
-328
-319
-315
-381
-377
-373
-369
-365
-361
-357
-353
-488
-524
-599
-593
-587
-581
-575
-569
-563
-557
-551
-545
-539
-533
-527
-521
-515
-509
-503
-463
-458
-590
-681
-674
-667
-660
-653
-646
-639
-632
-625
-618
-611
-604
-597
-591
-585
-579
-573
-567
-561
-555
-549
-703
-695
-841
-832
-823
-814
-1061
-1306
-1292
-1279
-1266
-1253
-1449
-1475
-1460
-1445
-1430
-1415
-1400
-1385
-1484
-1454
-1439
-1424
-1409
-1394
-1380
-1366
-1352
-1338
-1324
-1310
-1296
-1283
-1270
-1257
-1397
-1383
-1369
-1355
-1341
-1327
-1313
-1299
-1285
-1272
-1259
-1246
-1158
-1146
-1248
-1235
-1222
-1209
-1196
-1184
-1141
-1129
-1119
-1107
-1095
-1084
-1073
-1062
-1051
-1040
-1029
-1018
-1007
-996
-986
-976
-966
-909
-829
-808
-808
-799
-761
-753
-650
-643
-636
-629
-622
-615
-608
-601
-594
-588
-582
-576
-570
-564
-452
-362
-358
-354
-350
-346
-234
-116
-114
-112
-110
-108
-106
-104
-108
-26
-25
84
186
368
597
829
820
811
961
1102
1090
1278
1265
1442
1578
1657
1790
1772
1937
1917
2154
2267
2403
2378
2421
2718
2690
2961
3291
3258
3225
3192
3160
3384
3350
3403
3368
3590
3554
3582
3731
3926
3974
3973
3884
3845
3757
3757
3767
3680
3643
3606
3476
3420
3385
3351
3317
3232
3074
2918
2691
2573
2547
2521
2570
2636
2609
2517
2355
2331
2183
2229
2274
2193
2130
1965
1855
1644
1723
1601
1640
1525
1509
1438
1365
1365
1195
1046
983
973
1108
1077
1105
1093
1003
884
875
1040
1029
1157
1145
1133
1121
1283
1352
1488
1501
1494
1568
1712
1694
1755
1936
2155
2058
2185
2241
2201
2251
2376
2542
2712
2684
2814
3044
3218
3273
3419
3547
3668
3836
4036
4306
4597
4915
4865
5079
5028
5143
5330
5515
5761
6018
6250
6480
6697
6964
7315
7668
8018
8358
8695
9028
9239
9567
9899
10148
10497
10767
11080
10969
11280
11588
11893
12194
12204
12333
12633
12927
13218
13348
13635
13880
14090
14399
14603
14805
14981
14831
14682
14860
14711
14891
15069
15252
15262
15337
15511
15586
15666
15834
15916
15948
15788
15818
15893
15733
15575
15608
15682
15883
16013
16041
16063
16091
16260
16286
16350
16375
16446
16489
16587
16627
16628
16691
16694
16697
16652
16579
16470
16632
16793
16624
16791
16976
17133
17229
17233
17144
17092
16975
16860
16746
16632
16561
16449
16377
16306
16288
16143
16057
15972
15887
15802
15842
15883
15921
15913
16008
15873
15913
15930
15934
16006
16018
15982
16040
16151
16263
16504
16647
16739
16860
17201
17439
17586
17765
17977
18105
18270
18357
18360
18508
18659
18757
18877
18971
19056
18973
19117
19109
19080
19012
18889
18838
18743
18623
18643
18760
18813
18949
18970
19011
19201
19389
19572
19701
19827
19767
19645
19516
19365
19216
19068
18922
18780
18637
18498
18360
18224
18089
17952
17845
17714
17581
17450
17330
17201
17101
16974
16804
16751
16583
16424
16396
16279
16186
16152
16129
15998
15955
15890
15871
15782
15811
15776
15665
15700
15656
15706
15703
15680
15812
15834
15956
16091
16218
16297
16470
16424
16504
16437
16513
16622
16810
16641
16767
16940
17113
17284
17398
17659
17596
17807
17637
17659
17850
17967
18122
18196
18401
18548
18774
18966
18776
19001
19151
19268
19384
19628
19859
20116
20278
20297
20413
20644
20887
20979
21196
21357
21512
21727
21936
22149
22360
22494
22616
22824
23006
23124
23241
23406
23413
23531
23597
23554
23663
23846
24105
24331
24555
24729
24830
25025
25155
24903
24881
24915
25138
25284
25269
25340
25530
25718
25904
26016
26127
26145
26194
26234
26353
26500
26655
26735
26886
26964
27069
27169
27370
27467
27611
27636
27597
27480
27520
27670
27708
27749
27883
28029
28222
28273
28483
28597
28756
28794
28856
28997
28912
28817
28717
28612
28553
28445
28393
28433
28376
28280
28234
28279
28183
28108
28141
28183
28254
28295
28335
28375
28317
28387
28426
28495
28563
28625
28686
28464
28179
28124
28070
28046
28022
28095
28167
28232
28296
28389
28481
28572
28640
28588
28528
28499
28537
28484
28431
28439
28346
28348
28291
28240
28213
28141
28149
28061
27944
27767
27588
27475
27455
27430
27405
27507
27578
27678
27686
27763
27840
27886
27961
28028
28123
28218
28289
28112
28146
28241
28357
28450
28347
28439
28154
28187
28219
28313
28353
28438
28477
28538
28598
28658
28718
28784
28843
28931
28988
28697
28786
28859
28570
28599
28762
28924
29055
29184
29334
29460
29513
29570
29645
29719
29894
29971
30047
30147
30222
30296
30369
30464
30536
30543
30517
30475
30472
30468
30356
30365
30460
30155
30230
30326
30140
30237
30291
30387
30363
30416
30296
30349
30241
30176
30208
30081
30017
29954
29892
29536
29416
29219
29216
29300
29341
29304
29387
29447
29464
29504
29562
29620
29557
29516
29489
29398
29359
29295
29117
28825
28730
28519
28309
28105
27900
27820
27693
27544
27362
27236
27082
26887
26672
26482
26216
26029
25844
25602
25421
25197
24944
24694
24480
24388
24229
23936
23646
23359
23075
22844
22615
22338
22081
21809
21540
21274
21061
20801
20543
20247
20044
19843
19514
19188
18894
18704
18387
18072
17761
17460
17155
16853
16684
16516
16382
16208
15932
15636
15424
15140
14829
14544
14398
14186
13885
13588
13315
13022
12651
12283
11919
11558
11201
10847
10497
10151
9809
9710
9612
9303
8968
8637
8309
8225
8142
8060
7738
7419
7126
7032
6872
6803
6553
6487
6221
5895
5594
5297
5243
4949
4658
4370
4085
3932
3629
3592
3308
3026
2747
2472
2447
2422
2157
1888
1574
1407
1192
1067
876
867
858
736
728
438
433
103
-31
-356
-615
-608
-849
-1015
-1266
-1253
-1557
-1917
-2228
-2464
-2439
-2414
-2389
-2365
-2341
-2317
-2293
-2422
-2766
-2738
-3050
-3019
-3058
-3220
-3187
-3155
-3123
-3091
-3060
-3029
-2998
-2967
-2937
-2907
-2877
-2848
-2819
-2778
-2798
-2769
-2741
-2713
-2668
-2641
-2639
-2702
-2746
-2718
-2690
-2688
-2661
-2645
-2813
-2956
-3087
-3217
-3441
-3680
-3917
-4050
-4283
-4240
-4197
-4380
-4539
-4495
-4695
-4900
-4893
-5118
-5066
-5043
-5077
-5267
-5518
-5766
-5931
-6032
-6290
-6531
-6769
-7005
-7238
-7491
-7720
-7945
-8123
-8139
-8076
-8056
-7898
-7981
-8146
-8360
-8487
-8402
-8317
-8491
-8406
-8380
-8296
-8212
-8044
-7900
-7783
-7705
-7647
-7629
-7712
-7676
-7578
-7481
-7329
-7136
-7064
-6947
-6700
-6513
-6347
-6122
-6060
-5999
-5938
-5543
-5087
-5036
-4985
-4935
-4508
-4127
-3685
-3354
-2944
-2775
-2747
-2719
-2691
-2352
-1984
-1598
-1358
-1344
-1330
-1316
-1302
-1288
-1275
-1262
-1249
-1236
-1223
-1210
-1197
-1185
-796
-467
-441
-353
-215
-212
61
60
307
303
299
296
293
290
287
284
281
278
497
242
-51
-178
-176
-174
-172
-441
-710
-702
-968
-1232
-1219
-1480
-1739
-1721
-1703
-1685
-1668
-1651
-1634
-1617
-1600
-1583
-1567
-1551
-1535
-1519
-1503
-1487
-1472
-1457
-1716
-1979
-1959
-1939
-1919
-2057
-2036
-2015
-1994
-2199
-2401
-2657
-2630
-2603
-2576
-2550
-2524
-2779
-3055
-3322
-3288
-3553
-3815
-4074
-4043
-4002
-4209
-4414
-4369
-4325
-4281
-4238
-4195
-4401
-4604
-4805
-4756
-5012
-4961
-4911
-5165
-5433
-5378
-5324
-5270
-5217
-5164
-5112
-5364
-5611
-5825
-6014
-6257
-6498
-6432
-6671
-6604
-6841
-7076
-7253
-7180
-7356
-7282
-7513
-7763
-7933
-7853
-7774
-7696
-7618
-7831
-7752
-7674
-7886
-7807
-7728
-7650
-7840
-8001
-7920
-7840
-7761
-7683
-7606
-7529
-7751
-7971
-7891
-7812
-7733
-7655
-7876
-7797
-8016
-8239
-8404
-8319
-8235
-8400
-8563
-8477
-8640
-8682
-8595
-8508
-8422
-8585
-8747
-8659
-8572
-8734
-8894
-8804
-8715
-8627
-8540
-8454
-8369
-8285
-8202
-8119
-8285
-8450
-8452
-8367
-8283
-8200
-8117
-8088
-8255
-8420
-8335
-8345
-8261
-8426
-8645
-8879
-8790
-8702
-8860
-8771
-8851
-8762
-8923
-9130
-9038
-9153
-9342
-9473
-9378
-9284
-9191
-9099
-9007
-8916
-8826
-8737
-8649
-8860
-9075
-9282
-9493
-9397
-9302
-9311
-9473
-9378
-9284
-9495
-9703
-9747
-9649
-9552
-9456
-9699
-9849
-9998
-9897
-10045
-10242
-10139
-10335
-10495
-10389
-10285
-10182
-10080
-10221
-10366
-10532
-10426
-10506
-10400
-10295
-10191
-10335
-10439
-10334
-10230
-10127
-10273
-10418
-10521
-10663
-10804
-10999
-11192
-11285
-11172
-11308
-11194
-11081
-11273
-11160
-11048
-10937
-11035
-11132
-11284
-11171
-11267
-11362
-11248
-11135
-11271
-11406
-11539
-11423
-11556
-11737
-11619
-11502
-11636
-11519
-11672
-11804
-11852
-11859
-11740
-11733
-11615
-11498
-11382
-11268
-11155
-11043
-11207
-11300
-11375
-11532
-11664
-11547
-11431
-11580
-11768
-11914
-12058
-12144
-12286
-12370
-12246
-12331
-12207
-12084
-12289
-12463
-12338
-12518
-12718
-12590
-12767
-12920
-13028
-12897
-12767
-12858
-12977
-13111
-12979
-13153
-13021
-13098
-13270
-13137
-13253
-13120
-12988
-12857
-12728
-12600
-12473
-12556
-12678
-12781
-12653
-12778
-12650
-12731
-12851
-12722
-12594
-12467
-12590
-12463
-12586
-12460
-12335
-12211
-12088
-11967
-11847
-11728
-11610
-11493
-11377
-11510
-11642
-11525
-11409
-11542
-11674
-11557
-11441
-11326
-11212
-11099
-10987
-11125
-11261
-11396
-11529
-11413
-11546
-11678
-11561
-11693
-11822
-11703
-11585
-11469
-11354
-11240
-11127
-11015
-10904
-11041
-11178
-11313
-11447
-11569
-11700
-11582
-11466
-11621
-11794
-11943
-11823
-11952
-11832
-11961
-12089
-11967
-12095
-12221
-12346
-12470
-12345
-12469
-12592
-12465
-12588
-12729
-12601
-12722
-12842
-12960
-13078
-12947
-12817
-12688
-12560
-12681
-12802
-12920
-13038
-13174
-13310
-13444
-13309
-13442
-13307
-13173
-13309
-13443
-13308
-13174
-13283
-13398
-13511
-13600
-13463
-13575
-13524
-13649
-13759
-13868
-13977
-14107
-14235
-14092
-13950
-14100
-13958
-14108
-13966
-13826
-13687
-13549
-13702
-13832
-13961
-13821
-13682
-13545
-13409
-13274
-13409
-13409
-13274
-13409
-13522
-13386
-13520
-13688
-13854
-13715
-13881
-13990
-14117
-13975
-14118
-14042
-13901
-14006
-13988
-13847
-13803
-13659
-13603
-13466
-13331
-13233
-13153
-13007
-12876
-12747
-12628
-12501
-12375
-12251
-12163
-12041
-11920
-11800
-11681
-11564
-11448
-11333
-11219
-11106
-10994
-11024
-10972
-10862
-10809
-10700
-10584
-10478
-10426
-10439
-10597
-10713
-10605
-10498
-10392
-10287
-10454
-10619
-10793
-11021
-11247
-11134
-11319
-11519
-11403
-11288
-11426
-11311
-11372
-11258
-11145
-11033
-10922
-10812
-10703
-10587
-10807
-10698
-10590
-10483
-10378
-10611
-10743
-10874
-10765
-10657
-10510
-10404
-10299
-10110
-9890
-9925
-10152
-10354
-10250
-10147
-10349
-10510
-10404
-10299
-10195
-10092
-9990
-9890
-9717
-9619
-9446
-9351
-9257
-9413
-9622
-9525
-9429
-9334
-9240
-9451
-9683
-9691
-9615
-9604
-9519
-9423
-9329
-9199
-9106
-9014
-8923
-8833
-8744
-8656
-8500
-8367
-8221
-8076
-7995
-7872
-7793
-7610
-7533
-7457
-7382
-7308
-7234
-7161
-7089
-7018
-6947
-6877
-6808
-6739
-6671
-6604
-6537
-6471
-6297
-6191
-6129
-6067
-6006
-5945
-5885
-5826
-5767
-5709
-5651
-5594
-5458
-5403
-5348
-5294
-5161
-5109
-5057
-5006
-4955
-4905
-4855
-4806
-4757
-4709
-4520
-4474
-4429
-4384
-4199
-4156
-3956
-3916
-3648
-3611
-3305
-3271
-3118
-2942
-2912
-2882
-2853
-2824
-2629
-2602
-2454
-2429
-2404
-2379
-2320
-2296
-2273
-2250
-2227
-2204
-2181
-2159
-2129
-2126
-2124
-2116
-2127
-2051
-1922
-1794
-1503
-1231
-1218
-1205
-1192
-1180
-1168
-1156
-962
-952
-609
-602
-595
-589
-257
-37
-36
-35
-34
-33
-32
71
243
287
477
769
844
835
1054
1043
1032
1021
1010
1116
1104
1092
1081
1070
1059
1048
1037
1026
1015
1004
993
983
973
963
953
943
1116
1104
1092
1081
1226
1213
1200
1187
1175
1163
1151
1139
1127
1115
1103
1091
1080
1069
1058
1047
1036
1025
1293
1469
1454
1710
1692
1675
2000
1979
1959
1939
1919
1899
1879
1892
1975
1955
1935
1915
1895
1876
1857
1838
1819
1800
1781
1763
1745
1727
1744
1761
1743
1725
1707
1689
1672
1655
1638
1621
1604
1587
1571
1555
1562
1385
1371
1198
1186
1196
1254
1287
1274
1263
1250
1237
1224
1211
1198
1186
1174
1162
1150
1138
1126
1114
1102
1090
1243
1256
1243
1230
1269
1256
1243
1362
1348
1334
1321
1307
1293
1337
1358
1344
1330
1316
1302
1288
1275
1262
1249
1236
1223
1322
1259
1246
1233
1342
1382
1368
1354
1340
1326
1312
1298
1285
1272
1259
1246
1233
1220
1207
1196
1285
1272
1259
1414
1500
1484
1469
1454
1287
1093
1082
1071
1060
1049
1038
1027
1016
1005
929
763
555
549
515
509
478
401
396
392
388
384
380
312
89
88
87
86
-95
-258
-391
-564
-582
-643
-748
-740
-732
-913
-931
-1026
-1230
-1181
-1121
-1060
-1068
-1042
-1056
-1070
-1059
-1112
-1100
-1218
-1205
-1192
-1180
-1168
-1288
-1275
-1354
-1343
-1329
-1315
-1223
-1293
-1326
-1376
-1362
-1451
-1436
-1527
-1610
-1638
-1621
-1598
-1603
-1586
-1530
-1511
-1458
-1443
-1360
-1320
-1143
-1033
-1022
-1011
-1000
-989
-979
-969
-890
-662
-397
-217
-214
-52
115
113
111
109
375
371
367
470
645
942
932
1043
1261
1248
1223
1055
1130
1309
1421
1597
1869
1850
1831
1995
2200
2465
2440
2415
2615
2907
2877
2848
3125
3327
3536
3776
4014
4286
4243
4495
4766
5045
5239
5447
5392
5605
5548
5492
5437
5669
5936
5876
6118
6256
6396
6331
6267
6477
6463
6586
6790
6825
6805
6736
6668
6601
6846
6777
6996
7170
7456
7462
7647
7843
8037
8013
7986
8049
7968
7888
7984
7967
7887
7839
7866
7787
7709
7631
7543
7416
7341
7267
7143
7071
7000
6794
6652
6534
6439
6368
6191
6016
5842
5670
5500
5331
5277
5224
5081
4871
4581
4294
4010
3728
3690
3412
3136
3104
3072
3041
2769
2711
2442
2176
1937
1677
1419
1404
1389
1375
1361
1106
846
519
513
182
180
178
-87
-343
-339
-335
-684
-924
-914
-1129
-1342
-1738
-1944
-2227
-2508
-2786
-2758
-3001
-3274
-3489
-3454
-3419
-3384
-3350
-3316
-3282
-3249
-3216
-3453
-3805
-4014
-4277
-4234
-4191
-4503
-4761
-5017
-5270
-5521
-5728
-5800
-5848
-5789
-5731
-5762
-5704
-5646
-5810
-5900
-6018
-6191
-6307
-6461
-6677
-6728
-6767
-6806
-6737
-6669
-6594
-6597
-6597
-6679
-6790
-6722
-6654
-6587
-6521
-6531
-6643
-6781
-6713
-6742
-6787
-6957
-6887
-6960
-7097
-7187
-7128
-7152
-7237
-7192
-7304
-7343
-7427
-7648
-7733
-7925
-8093
-8259
-8480
-8626
-8559
-8715
-8869
-8788
-8833
-8744
-8729
-8590
-8495
-8355
-8142
-7909
-7658
-7472
-7328
-7185
-7113
-6954
-6795
-6597
-6443
-6291
-6098
-5941
-5710
-5481
-5325
-5142
-5003
-4904
-4806
-4624
-4405
-4102
-3847
-3550
-3282
-2992
-2762
-2495
-2212
-2124
-2084
-1920
-1682
-1492
-1213
-920
-672
-356
-17
296
605
910
1277
1618
1917
2209
2563
2537
2511
2797
3124
3446
3788
4023
4255
4569
4880
5188
5493
5792
5803
5989
5929
5897
6027
6203
6140
6201
6375
6548
6489
6440
6505
6588
6513
6374
6391
6401
6410
6381
6397
6452
6594
6812
6743
6960
7175
7385
7311
7311
7522
7645
7853
7980
8011
8255
8454
8614
8769
8952
8862
9130
9416
9702
9982
10204
10078
9977
9877
9778
9680
9733
9758
10002
10225
10365
10457
10675
10794
10685
10974
11220
11515
11744
11971
12196
12492
12744
12991
13206
13516
13380
13621
13865
14017
14326
14631
14885
14896
15071
15106
15291
15541
15570
15637
15949
16258
16485
16674
16930
17173
17001
17299
17470
17708
17953
18160
18232
18205
18022
18040
18055
18131
18318
18544
18556
18711
18890
19123
19374
19623
19426
19654
19834
19921
20135
20206
20085
19883
20002
19840
19845
19874
20109
20245
20469
20578
20738
20976
20766
20998
21240
21437
21635
21849
22061
22172
21950
22130
22243
22129
22118
22187
22305
22533
22697
22889
23072
23189
23315
23081
23276
23424
23508
23739
23900
23660
23773
23854
23935
24014
24123
24225
24326
24317
24073
24243
24350
24426
24498
24569
24729
24481
24235
24368
24444
24545
24283
24148
24238
24319
24408
24562
24670
24795
24683
24812
24940
24932
24947
25059
25227
25340
25456
25418
25308
25268
25133
24986
24636
24646
24414
24351
24307
24263
24294
24305
24061
23820
23841
23773
23703
23558
23483
23247
23014
22951
22807
22767
22720
22707
22613
22575
22707
22636
22596
22753
22894
23064
22833
22898
23068
22837
22827
22998
23185
23287
23411
23176
23242
23409
23532
23727
23992
23751
23952
24129
24160
24384
24476
24231
24229
24083
24263
24440
24691
24885
24944
24694
24446
24587
24678
24520
24274
24031
24045
23804
23958
24187
24321
24473
24327
24083
23841
23602
23600
23757
23713
23475
23561
23488
23755
23913
23673
23878
23638
23756
23870
23631
23810
23571
23335
23456
23221
23328
23448
23213
22980
22907
23031
23179
23092
22860
22631
22404
22179
21956
22060
22194
21971
22179
22413
22448
22472
22563
22556
22687
22594
22367
22319
22227
22211
22151
22046
21998
21906
21698
21480
21264
21085
20873
20664
20544
20372
20378
20325
20225
19974
19879
19907
19934
19884
19809
19731
19739
19857
19779
19821
19824
19983
20008
19807
19837
19853
20001
19887
19862
20020
20200
20400
20195
19992
20085
19883
19904
19704
19535
19557
19361
19167
19090
19096
18869
18733
18766
18780
18790
18918
18999
19119
19216
19023
18809
18914
18723
18634
18707
18519
18593
18721
18813
18839
18943
18747
18559
18684
18952
19211
19226
19360
19609
19412
19669
19709
19779
19809
19826
19662
19757
19559
19363
19264
19143
18951
18980
18961
18979
18903
18778
18590
18402
18171
17989
17808
17629
17429
17254
17094
16922
16788
16622
16455
16290
16177
16114
15952
15749
15591
15598
15572
15416
15261
15302
15212
15059
14908
14758
14610
14728
14838
14689
14597
14450
14364
14404
14601
14454
14296
14130
13960
13829
13918
13778
13640
13646
13509
13373
13239
13106
13039
13008
12825
12531
12393
12268
12145
12023
11902
11782
11664
11547
11431
11316
11202
11168
11114
11002
10918
10824
10770
10662
10664
10823
10865
10996
11028
11237
11387
11548
11656
11539
11703
11570
11454
11339
11225
11112
11000
10889
10903
10793
10614
10569
10438
10333
10229
9908
9732
9634
9537
9441
9346
9252
8941
8679
8592
8505
8419
8334
8250
8167
8085
8004
7923
7843
7764
7686
7609
7532
7456
7381
7307
7233
7160
7088
7017
6777
6729
6503
6437
6227
6164
6102
5871
5812
5577
5521
5465
5410
5206
4983
4933
4707
4359
4029
3988
3752
3561
3525
3212
2970
2688
2661
2634
2607
2328
2026
1836
1799
1780
1762
1744
1726
1708
1690
1567
1468
1453
1438
1423
1408
1393
1379
1365
1351
1337
1323
1309
1295
1282
1269
1174
1162
1150
1138
1020
1009
998
988
978
968
958
948
977
967
890
881
872
863
854
845
836
826
817
808
799
791
783
775
767
759
751
766
757
748
740
732
724
716
708
700
692
685
678
671
664
657
650
643
636
629
622
615
462
457
451
445
333
329
325
321
317
313
309
305
301
297
294
291
288
285
282
279
276
273
270
267
264
261
258
255
251
72
-30
-29
-28
-27
-26
-25
-24
-23
-22
-21
-20
-19
-18
-17
-16
-177
-175
-173
-257
-254
-251
-248
-245
-242
-239
-236
-233
-378
-374
-370
-596
-590
-584
-578
-572
-566
-560
-870
-861
-1130
-1118
-1302
-1288
-1333
-1319
-1305
-1291
-1278
-1265
-1252
-1239
-1226
-1213
-1200
-1187
-1175
-1163
-1151
-1139
-1127
-1115
-1103
-1091
-1080
-1069
-1058
-1047
-1036
-1025
-1014
-1003
-992
-982
-972
-962
-952
-942
-932
-922
-912
-902
-892
-1073
-1110
-1098
-1087
-1076
-1065
-1054
-1043
-1032
-1021
-1010
-999
-989
-979
-969
-959
-949
-939
-929
-919
-909
-899
-890
-881
-872
-863
-854
-845
-836
-827
-818
-809
-800
-791
-783
-775
-767
-759
-751
-743
-735
-998
-1194
-1182
-1170
-1158
-1337
-1323
-1356
-1342
-1328
-1314
-1300
-1286
-1273
-1260
-1247
-1234
-1221
-1208
-1195
-1183
-1171
-1159
-1147
-1370
-1536
-1520
-1504
-1488
-1473
-1458
-1443
-1428
-1413
-1398
-1384
-1370
-1356
-1342
-1328
-1314
-1300
-1286
-1273
-1260
-1247
-1234
-1221
-1208
-1195
-1183
-1171
-1159
-1147
-1135
-1123
-1111
-1099
-1087
-1076
-1065
-1054
-1043
-1032
-1021
-1010
-999
-989
-979
-969
-959
-949
-939
-929
-919
-909
-899
-890
-881
-872
-863
-854
-845
-836
-827
-1023
-1077
-1066
-1055
-1044
-1033
-1022
-1011
-1000
-989
-979
-969
-959
-949
-939
-929
-919
-909
-899
-890
-881
-872
-863
-854
-998
-976
-966
-956
-946
-936
-926
-916
-906
-896
-887
-878
-869
-860
-851
-842
-833
-824
-815
-806
-797
-789
-781
-773
-765
-757
-749
-741
-733
-725
-717
-709
-701
-995
-985
-975
-1363
-1349
-1335
-1321
-1307
-1293
-1280
-1267
-1254
-1365
-1700
-1682
-1665
-1648
-1631
-1614
-1597
-1935
-2279
-2256
-2233
-2210
-2187
-2165
-2143
-2121
-2099
-2077
-2056
-2035
-2014
-1993
-1973
-1953
-1933
-1913
-1893
-1951
-1931
-2030
-2009
-1988
-1968
-1948
-1928
-1908
-1888
-1869
-1850
-1831
-1812
-1793
-1775
-1757
-1739
-1721
-1703
-1685
-1668
-1651
-1964
-2082
-2309
-2285
-2262
-2239
-2216
-2193
-2171
-2149
-2127
-2105
-2083
-2062
-2041
-2020
-1999
-1978
-1958
-1938
-1918
-1898
-2077
-2056
-2163
-2141
-2119
-2097
-2076
-2055
-2034
-2013
-1992
-1972
-1952
-1932
-1912
-1952
-1932
-1912
-1899
-1879
-1860
-1841
-1822
-1803
-1784
-1766
-1748
-1730
-1712
-1694
-1677
-1660
-1643
-1626
-1609
-1592
-1576
-1560
-1544
-1495
-1427
-1412
-1397
-1383
-1369
-1355
-1341
-1327
-1313
-1299
-1285
-1272
-1259
-1246
-1233
-1220
-1207
-1215
-1197
-1185
-1173
-1161
-1149
-1137
-1125
-1113
-1101
-1089
-1078
-1067
-1056
-1045
-1034
-1023
-1012
-1001
-990
-998
-930
-920
-910
-900
-890
-881
-872
-863
-854
-845
-836
-827
-818
-809
-800
-791
-783
-775
-767
-759
-751
-743
-670
-663
-656
-614
-607
-600
-593
-587
-581
-640
-690
-683
-676
-669
-662
-655
-648
-641
-634
-627
-620
-613
-606
-599
-593
-587
-673
-861
-852
-843
-834
-825
-816
-807
-981
-971
-961
-951
-941
-931
-921
-1142
-1130
-1118
-1106
-1094
-1083
-1072
-1061
-1050
-1233
-1220
-1207
-1337
-1323
-1309
-1295
-1282
-1269
-1256
-1243
-1230
-1217
-1204
-1191
-1179
-1167
-1155
-1143
-1131
-1119
-1107
-1095
-1084
-1073
-1062
-1312
-1591
-1575
-1559
-1543
-1527
-1511
-1495
-1480
-1465
-1450
-1435
-1420
-1405
-1390
-1376
-1362
-1348
-1334
-1320
-1306
-1292
-1279
-1266
-1253
-1240
-1227
-1553
-1537
-1521
-1505
-1719
-1701
-1683
-1666
-1649
-1632
-1615
-1598
-1582
-1566
-1550
-1534
-1518
-1502
-1486
-1471
-1456
-1550
-1754
-1736
-1718
-1700
-1682
-1665
-1648
-1631
-1614
-1597
-1581
-1565
-1549
-1533
-1517
-1501
-1485
-1470
-1455
-1440
-1425
-1410
-1395
-1381
-1324
-1280
-1267
-1254
-1241
-1228
-1215
-1202
-1189
-1177
-1165
-1153
-1296
-1283
-1462
-1447
-1432
-1417
-1402
-1387
-1352
-1338
-1587
-1571
-1555
-1539
-1523
-1507
-1491
-1476
-1461
-1446
-1431
-1416
-1401
-1698
-1681
-1664
-1647
-1826
-1940
-1920
-1900
-1880
-1861
-1842
-1823
-1804
-1785
-1767
-1749
-1731
-1713
-1695
-1678
-1661
-1644
-1627
-1610
-1593
-1577
-1561
-1545
-1529
-1513
-1497
-1482
-1467
-1452
-1437
-1422
-1407
-1392
-1378
-1364
-1350
-1336
-1322
-1611
-1811
-1792
-1774
-1756
-1738
-1720
-1702
-1684
-1667
-1650
-1633
-1616
-1599
-1582
-1566
-1550
-1534
-1518
-1502
-1486
-1471
-1456
-1441
-1426
-1411
-1396
-1382
-1368
-1354
-1340
-1326
-1312
-1298
-1285
-1272
-1259
-1246
-1233
-1220
-1281
-1268
-1452
-1437
-1553
-1537
-1521
-1734
-1955
-1935
-1915
-1895
-2093
-2287
-2264
-2399
-2597
-2900
-3174
-3142
-3414
-3693
-3974
-4008
-4023
-4078
-4133
-4091
-4050
-4104
-4200
-4318
-4563
-4825
-5056
-5005
-5233
-5295
-5356
-5440
-5385
-5444
-5734
-6084
-6325
-6666
-6599
-6532
-6466
-6647
-6890
-6934
-6864
-7033
-7143
-7355
-7590
-7514
-7653
-7880
-8125
-8134
-8232
-8331
-8502
-8416
-8331
-8484
-8694
-8901
-9143
-9051
-9253
-9493
-9576
-9786
-9943
-10132
-10228
-10412
-10571
-10703
-10873
-11072
-11199
-11136
-11024
-10913
-10803
-10694
-10864
-10951
-10841
-10770
-10818
-10717
-10705
-10693
-10680
-10692
-10584
-10478
-10468
-10382
-10420
-10375
-10432
-10420
-10434
-10453
-10419
-10434
-10423
-10318
-10202
-10163
-10115
-10013
-9852
-9701
-9581
-9485
-9300
-9292
-9242
-9117
-9025
-8931
-8778
-8690
-8600
-8450
-8365
-8281
-8198
-8052
-7973
-7890
-7771
-7681
-7584
-7489
-7395
-7320
-7375
-7301
-7227
-7154
-7082
-7015
-7057
-7099
-7140
-7181
-7301
-7313
-7421
-7531
-7629
-7763
-7685
-7844
-7998
-7917
-7828
-7838
-7888
-7940
-7899
-7956
-8166
-8329
-8431
-8525
-8675
-8855
-9053
-9229
-9381
-9385
-9291
-9278
-9240
-9147
-9051
-8877
-8885
-8911
-8969
-8879
-8992
-8951
-9001
-8923
-8970
-9028
-9234
-9205
-9406
-9598
-9501
-9378
-9268
-9171
-9094
-8879
-8790
-8702
-8651
-8598
-8419
-8334
-7986
-7728
-7579
-7415
-7282
-7043
-6987
-7010
-6977
-7063
-7254
-7337
-7483
-7670
-7831
-7996
-8234
-8468
-8383
-8672
-8958
-9104
-9351
-9490
-9656
-9800
-9939
-10004
-10136
-9995
-10162
-10331
-10501
-10666
-10559
-10704
-10596
-10608
-10741
-10769
-10981
-11168
-11056
-10945
-11138
-11026
-11238
-11419
-11575
-11627
-11811
-12009
-12208
-12405
-12280
-12467
-12640
-12634
-12805
-12676
-12847
-13016
-13183
-13349
-13513
-13377
-13541
-13405
-13568
-13730
-13592
-13455
-13618
-13779
-13939
-14103
-13961
-14119
-14275
-14430
-14589
-14746
-14924
-15072
-15225
-15072
-15224
-15295
-15141
-15237
-15084
-15259
-15410
-15559
-15659
-15710
-15552
-15722
-15890
-15985
-16091
-16230
-16365
-16521
-16675
-16806
-16879
-16775
-16828
-16859
-16930
-16760
-16592
-16688
-16767
-16869
-16788
-16923
-17057
-17184
-17309
-17439
-17562
-17634
-17761
-17831
-17900
-17720
-17846
-17937
-18054
-17873
-17942
-18066
-18189
-18310
-18430
-18549
-18661
-18778
-18894
-19008
-19121
-19233
-19338
-19448
-19557
-19665
-19772
-19878
-19927
-19975
-20023
-20070
-19869
-19670
-19721
-19771
-19814
-19863
-19912
-20016
-19815
-19920
-20040
-20143
-20245
-20346
-20463
-20562
-20660
-20773
-20914
-20979
-20769
-20838
-20950
-21038
-21125
-20913
-20703
-20793
-20882
-20970
-21008
-21140
-21232
-21267
-21357
-21391
-21480
-21562
-21650
-21737
-21817
-21872
-21956
-21736
-21816
-21900
-21984
-21763
-21849
-21928
-22029
-22129
-22227
-22308
-22387
-22464
-22542
-22316
-22339
-22362
-22389
-22434
-22457
-22480
-22502
-22341
-22365
-22389
-22412
-22491
-22265
-22362
-22464
-22520
-22436
-22232
-22098
-21965
-21792
-21640
-21635
-21663
-21650
-21680
-21766
-21796
-21881
-21965
-22049
-22076
-22153
-22229
-22310
-22390
-22469
-22244
-22325
-22405
-22428
-22507
-22585
-22662
-22733
-22809
-22801
-22857
-22826
-22861
-22887
-22976
-23067
-23155
-23220
-23330
-23445
-23536
-23604
-23665
-23726
-23786
-23851
-23910
-23670
-23737
-23797
-23861
-23925
-23926
-23885
-23892
-23922
-23952
-23912
-23843
-23894
-23743
-23690
-23673
-23699
-23661
-23424
-23475
-23347
-23113
-23104
-22986
-23052
-23084
-23066
-23142
-23022
-23013
-22963
-22956
-22798
-22737
-22788
-22711
-22618
-22639
-22627
-22510
-22419
-22264
-22275
-22139
-22069
-22023
-21931
-21781
-21695
-21652
-21524
-21397
-21252
-21109
-20967
-20804
-20642
-20507
-20371
-20335
-20131
-20041
-20008
-19919
-19969
-19841
-19708
-19582
-19451
-19434
-19404
-19374
-19352
-19323
-19301
-19298
-19269
-19241
-19213
-19114
-19100
-19003
-18977
-18882
-18745
-18610
-18489
-18375
-18369
-18280
-18143
-18062
-18059
-17950
-17800
-17828
-17827
-17855
-17854
-17663
-17664
-17568
-17392
-17261
-17198
-17025
-16854
-16685
-16517
-16351
-16337
-16323
-16109
-16165
-16165
-16179
-16017
-15900
-15821
-15717
-15712
-15608
-15680
-15656
-15566
-15569
-15413
-15258
-15105
-15142
-15092
-15073
-15001
-14850
-14701
-14553
-14407
-14262
-14119
-13977
-13837
-13698
-13580
-13701
-13862
-13799
-13804
-13762
-13624
-13708
-13778
-13878
-14095
-13953
-13813
-13674
-13607
-13771
-13883
-13744
-13814
-13982
-14170
-14376
-14580
-14434
-14289
-14499
-14660
-14883
-14734
-14914
-15158
-15334
-15508
-15352
-15526
-15548
-15567
-15541
-15754
-15596
-15768
-15895
-15735
-15905
-16157
-16407
-16536
-16370
-16464
-16495
-16616
-16645
-16682
-16714
-16727
-16824
-16949
-16901
-16871
-16826
-16869
-16758
-16745
-16784
-16615
-16613
-16639
-16743
-16851
-16847
-16678
-16787
-16866
-16973
-17053
-17155
-17256
-17333
-17439
-17544
-17368
-17467
-17514
-17338
-17437
-17262
-17362
-17188
-17015
-17089
-17108
-17042
-17127
-17212
-17039
-17167
-17197
-17295
-17283
-17110
-16938
-16768
-16640
-16717
-16549
-16383
-16219
-16056
-15895
-15735
-15659
-15584
-15574
-15460
-15305
-15151
-14999
-14848
-14699
-14551
-14405
-14260
-14117
-13975
-13835
-13696
-13558
-13422
-13287
-13154
-13210
-13159
-13027
-12896
-12766
-12638
-12511
-12385
-12261
-12138
-12016
-11895
-11775
-11657
-11728
-11716
-11598
-11481
-11366
-11252
-11139
-11027
-10916
-10806
-10697
-10589
-10483
-10378
-10274
-10171
-10069
-10074
-9973
-9873
-9774
-9676
-9579
-9483
-9388
-9294
-9200
-9107
-9015
-8924
-8834
-8745
-8657
-8570
-8524
-8438
-8353
-8269
-8186
-8104
-8022
-7941
-7861
-7782
-7704
-7626
-7549
-7473
-7398
-7323
-7249
-7176
-7174
-7132
-7060
-6989
-6919
-6849
-6780
-6712
-6644
-6583
-6523
-6457
-6392
-6328
-6264
-6201
-6138
-6076
-6015
-5954
-5906
-5828
-5769
-5711
-5653
-5596
-5539
-5483
-5428
-5373
-5319
-5265
-5212
-5159
-5107
-5055
-5004
-4953
-4903
-4859
-4792
-4744
-4696
-4648
-4601
-4554
-4508
-4462
-4417
-4372
-4328
-4284
-4241
-4198
-4155
-4113
-4071
-4030
-3989
-3949
-3915
-3875
-3836
-3797
-3740
-3702
-3664
-3627
-3590
-3554
-3518
-3482
-3447
-3412
-3377
-3343
-3309
-3275
-3327
-3355
-3321
-3287
-3254
-3221
-3188
-3156
-3124
-3092
-3061
-3030
-2999
-2968
-2938
-2908
-2878
-2849
-2820
-2892
-2853
-2824
-2795
-2767
-2739
-2711
-2683
-2656
-2629
-2602
-2575
-2549
-2523
-2497
-2472
-2447
-2422
-2452
-2450
-2472
-2672
-2885
-2970
-2940
-3080
-3179
-3367
-3513
-3477
-3442
-3407
-3552
-3834
-3795
-3757
-3719
-3681
-3644
-3607
-3570
-3777
-3739
-3882
-3843
-3804
-3765
-3727
-3689
-3652
-3615
-3578
-3542
-3506
-3470
-3435
-3400
-3365
-3331
-3297
-3506
-3747
-3709
-3671
-3634
-3597
-3560
-3524
-3488
-3453
-3418
-3383
-3349
-3315
-3281
-3525
-3789
-3786
-3748
-3710
-3672
-3635
-3598
-3561
-3525
-3489
-3454
-3419
-3384
-3350
-3316
-3282
-3249
-3216
-3183
-3151
-3119
-3087
-3056
-3025
-2994
-2964
-2934
-2904
-2874
-2845
-2816
-2787
-2759
-2731
-2703
-2675
-2648
-2621
-2594
-2568
-2542
-2782
-2930
-2900
-2870
-2841
-2812
-2783
-2755
-2727
-2699
-2671
-2644
-2617
-2590
-2564
-2538
-2512
-2486
-2461
-2436
-2411
-2386
-2362
-2554
-2528
-2502
-2476
-2731
-2703
-2675
-2648
-2621
-2594
-3045
-3014
-3338
-3304
-3270
-3237
-3204
-3171
-3139
-3107
-3468
-3754
-3716
-3678
-3641
-3604
-3567
-3531
-3495
-3460
-3425
-3390
-3356
-3322
-3288
-3255
-3222
-3189
-3157
-3125
-3093
-3062
-3031
-3384
-3462
-3427
-3392
-3358
-3324
-3290
-3257
-3224
-3191
-3159
-3127
-3095
-3064
-3033
-3002
-2971
-2941
-2911
-2881
-2852
-3243
-3370
-3336
-3302
-3565
-3529
-3493
-3458
-3423
-3388
-3354
-3320
-3286
-3253
-3220
-3187
-3155
-3123
-3091
-3060
-3029
-2998
-2967
-2937
-3177
-3145
-3113
-3211
-3178
-3146
-3114
-3082
-3051
-3020
-2989
-2959
-2929
-2899
-2869
-3145
-3307
-3273
-3240
-3207
-3174
-3142
-3110
-3078
-3047
-3016
-3245
-3212
-3534
-3498
-3626
-3589
-3628
-3591
-3555
-3519
-3483
-3448
-3413
-3378
-3344
-3310
-3276
-3243
-3210
-3177
-3145
-3225
-3383
-3349
-3315
-3281
-3248
-3215
-3182
-3150
-3118
-3086
-3055
-3024
-2993
-2963
-2933
-2903
-2873
-3073
-3394
-3726
-3995
-3955
-3915
-3875
-3836
-3797
-3758
-3720
-3682
-3645
-3608
-3571
-3535
-3499
-3463
-3428
-3462
-3427
-3646
-3609
-3572
-3536
-3500
-3464
-3429
-3394
-3360
-3326
-3292
-3259
-3226
-3193
-3161
-3129
-3289
-3537
-3866
-4117
-4309
-4265
-4222
-4179
-4137
-4095
-4054
-4013
-3972
-3932
-3892
-3853
-3814
-3930
-3890
-3851
-3812
-3773
-3735
-3697
-3659
-3622
-3585
-3549
-3513
-3477
-3442
-3407
-3372
-3338
-3304
-3270
-3237
-3204
-3171
-3139
-3171
-3139
-3088
-3057
-3026
-2995
-2965
-2935
-2905
-2875
-2846
-2817
-2788
-2760
-2732
-2704
-2676
-2649
-2622
-2595
-2569
-2626
-2575
-2549
-2523
-2497
-2472
-2447
-2422
-2397
-2373
-2349
-2526
-2500
-2474
-2514
-2647
-2805
-2776
-2748
-2720
-2692
-2665
-2638
-2611
-2584
-2558
-2532
-2506
-2480
-2455
-2747
-3060
-3029
-2998
-3242
-3209
-3176
-3144
-3256
-3223
-3190
-3158
-3126
-3094
-3063
-3032
-3001
-2970
-2940
-2910
-2880
-2851
-2822
-2988
-3305
-3271
-3238
-3205
-3172
-3140
-3108
-3076
-3045
-3014
-2983
-2953
-2923
-2893
-2938
-2908
-3010
-2979
-2949
-2919
-2889
-2860
-2831
-2802
-2773
-2745
-2717
-2689
-2662
-2635
-2897
-3091
-3060
-3029
-2998
-2967
-2937
-2907
-2877
-2848
-2819
-2790
-2961
-2931
-3282
-3249
-3216
-3183
-3151
-3119
-3202
-3417
-3382
-3348
-3314
-3280
-3247
-3214
-3469
-3434
-3399
-3364
-3330
-3296
-3362
-3328
-3294
-3261
-3228
-3195
-3163
-3131
-3099
-3178
-3146
-3356
-3322
-3288
-3255
-3222
-3189
-3157
-3125
-3093
-3062
-3031
-3000
-2969
-2939
-2909
-2879
-3092
-3061
-3127
-3095
-3064
-3033
-3002
-2971
-2941
-2911
-2881
-2852
-2823
-2794
-2766
-2738
-2710
-2682
-2655
-2628
-2601
-2574
-2548
-2522
-2496
-2471
-2446
-2421
-2396
-2589
-2563
-2537
-2511
-2774
-2746
-2718
-2690
-2663
-2636
-2697
-2799
-2770
-2742
-2714
-2686
-2659
-2632
-2605
-2578
-2552
-2526
-2500
-2474
-2449
-2424
-2399
-2374
-2350
-2326
-2302
-2278
-2255
-2232
-2209
-2186
-2164
-2142
-2120
-2098
-2076
-2055
-2034
-2013
-1992
-1972
-1952
-1932
-1912
-1892
-1873
-1854
-1835
-1816
-1797
-1779
-1761
-1743
-1725
-1707
-1689
-1672
-1655
-1638
-1621
-1604
-1587
-1571
-1555
-1539
-1749
-1731
-1709
-1691
-1652
-1635
-1618
-1597
-1581
-1565
-1549
-1533
-1517
-1501
-1485
-1470
-1455
-1440
-1425
-1544
-1473
-1458
-1443
-1428
-1413
-1398
-1384
-1370
-1356
-1342
-1328
-1314
-1300
-1286
-1273
-1260
-1247
-1234
-1221
-1208
-1195
-1183
-1124
-1097
-1086
-1075
-1064
-1053
-1042
-1031
-1020
-1009
-998
-988
-978
-968
-958
-948
-938
-928
-943
-878
-869
-860
-851
-866
-857
-812
-803
-794
-786
-778
-770
-762
-754
-746
-738
-730
-722
-714
-706
-698
-702
-635
-628
-621
-614
-607
-600
-593
-587
-581
-575
-569
-563
-557
-551
-545
-539
-533
-527
-582
-756
-748
-740
-732
-724
-716
-708
-700
-692
-685
-924
-914
-1270
-1633
-2012
-1991
-1971
-1951
-1931
-1911
-1891
-1907
-1887
-2129
-2107
-2085
-2064
-2043
-2022
-2001
-1980
-2229
-2378
-2354
-2330
-2306
-2282
-2259
-2236
-2213
-2190
-2508
-2670
-2643
-2616
-2589
-2563
-2537
-2511
-2485
-2460
-2435
-2410
-2385
-2361
-2337
-2313
-2289
-2266
-2243
-2220
-2197
-2518
-2648
-2621
-2594
-2868
-2839
-2810
-2781
-2753
-2725
-2697
-2670
-2643
-2616
-2589
-2563
-2537
-2511
-2485
-2460
-2435
-2529
-2503
-2620
-2593
-2765
-3121
-3089
-3058
-3027
-2996
-2966
-2936
-2906
-2876
-2847
-2818
-2789
-2761
-2733
-2705
-2737
-2709
-2681
-2654
-2756
-2728
-2700
-2672
-2645
-2618
-2591
-2565
-2539
-2513
-2487
-2462
-2620
-2635
-2608
-2581
-2555
-2529
-2503
-2477
-2452
-2427
-2402
-2377
-2353
-2329
-2305
-2281
-2504
-2724
-2696
-2669
-2642
-2615
-2588
-2562
-2536
-2510
-2484
-2459
-2434
-2409
-2384
-2360
-2336
-2312
-2288
-2265
-2242
-2219
-2196
-2174
-2152
-2130
-2108
-2086
-2065
-2044
-2023
-2002
-1981
-2178
-2152
-2130
-2108
-2086
-2065
-2044
-2023
-1933
-2128
-2106
-2084
-2063
-2042
-2021
-2000
-2180
-2326
-2429
-2404
-2379
-2355
-2331
-2307
-2283
-2398
-2608
-2581
-2555
-2529
-2503
-2477
-2452
-2701
-2991
-3206
-3173
-3141
-3109
-3077
-3046
-3015
-2982
-3028
-2997
-2967
-2937
-3008
-2983
-3043
-3083
-3052
-3101
-3098
-3204
-3171
-3139
-3107
-3075
-3044
-3013
-2982
-2952
-2839
-2810
-2863
-2867
-2748
-2663
-2559
-2444
-2419
-2394
-2370
-2230
-2157
-2135
-2113
-2091
-2070
-2049
-2028
-2007
-1986
-1966
-1946
-1922
-1986
-1966
-1946
-1881
-1755
-1757
-1793
-1777
-1808
-2149
-2257
-2234
-2305
-2281
-2476
-2777
-3075
-3370
-3336
-3302
-3268
-3235
-3202
-3169
-3208
-3444
-3605
-3568
-3532
-3496
-3461
-3426
-3391
-3357
-3323
-3526
-3816
-3971
-3931
-4045
-3995
-3955
-4087
-4046
-4005
-4290
-4573
-4665
-4618
-4897
-5117
-5065
-5014
-4963
-4913
-5189
-5463
-5745
-6001
-6266
-6203
-6140
-6208
-6370
-6306
-6506
-6370
-6358
-6294
-6493
-6718
-6650
-6873
-7094
-7311
-7526
-7740
-7932
-8122
-8040
-7959
-8205
-8122
-8310
-8496
-8657
-8896
-9132
-9310
-9216
-9374
-9280
-9415
-9568
-9472
-9377
-9553
-9457
-9362
-9476
-9651
-9561
-9671
-9759
-9951
-10141
-10329
-10571
-10735
-10725
-10881
-11042
-10931
-10821
-10712
-10874
-11111
-11269
-11446
-11331
-11217
-11374
-11260
-11147
-11035
-10924
-11084
-11243
-11378
-11531
-11682
-11813
-11942
-12126
-12252
-12397
-12520
-12662
-12783
-12923
-13000
-13139
-13277
-13362
-13476
-13341
-13511
-13679
-13846
-13955
-14063
-13922
-14030
-14157
-14319
-14175
-14033
-14196
-14357
-14461
-14620
-14473
-14328
-14432
-14535
-14637
-14738
-14838
-14937
-15091
-15243
-15394
-15503
-15347
-15401
-15454
-15547
-15639
-15786
-15897
-15985
-15824
-15665
-15776
-15886
-15994
-16100
-16199
-16284
-16368
-16472
-16555
-16636
-16717
-16797
-16876
-16707
-16787
-16866
-17001
-17127
-17225
-17292
-17366
-17440
-17265
-17092
-17128
-17260
-17351
-17481
-17554
-17642
-17729
-17551
-17623
-17710
-17836
-17865
-17990
-18057
-18124
-18150
-18238
-18263
-18377
-18472
-18591
-18652
-18713
-18525
-18587
-18648
-18709
-18769
-18829
-18640
-18678
-18714
-18774
-18937
-18747
-18767
-18883
-18997
-19051
-19236
-19324
-19348
-19154
-18962
-19098
-19210
-19321
-19375
-19429
-19538
-19668
-19775
-19825
-19930
-20034
-20137
-20206
-20307
-20359
-20403
-20502
-20296
-20396
-20489
-20531
-20629
-20720
-20754
-20794
-20910
-21004
-20793
-20882
-20976
-21014
-21051
-21166
-21258
-21343
-21433
-21522
-21610
-21393
-21178
-20966
-21060
-21097
-21189
-21280
-21370
-21404
-21445
-21528
-21560
-21592
-21622
-21405
-21437
-21526
-21614
-21700
-21808
-21837
-21899
-21912
-21858
-21639
-21518
-21302
-21088
-20906
-20696
-20447
-20242
-20004
-19803
-19813
-19614
-19721
-19523
-19631
-19681
-19787
-19891
-19691
-19765
-19688
-19788
-19893
-19990
-20110
-19908
-20028
-20077
-20174
-20270
-20336
-20453
-20552
-20594
-20691
-20787
-20882
-20976
-21086
-21195
-20982
-21075
-21207
-21343
-21129
-20917
-20851
-20860
-20955
-21072
-21109
-21129
-21238
-21346
-21252
-21118
-21033
-20871
-20929
-20719
-20759
-20551
-20649
-20746
-20538
-20332
-20128
-20230
-20331
-20431
-20530
-20628
-20669
-20710
-20750
-20846
-20885
-20675
-20468
-20263
-20060
-20163
-20209
-20325
-20121
-19919
-20045
-20099
-20223
-20128
-19926
-19726
-19528
-19332
-19442
-19247
-19358
-19412
-19217
-19272
-19327
-19381
-19435
-19488
-19596
-19399
-19204
-19315
-19369
-19479
-19532
-19640
-19614
-19680
-19787
-19588
-19639
-19690
-19492
-19296
-19102
-18910
-18968
-19025
-19082
-19138
-19194
-19249
-19318
-19387
-19462
-19267
-19405
-19564
-19615
-19441
-19463
-19464
-19486
-19290
-19096
-18904
-18955
-18977
-18834
-18734
-18809
-18620
-18651
-18810
-18621
-18788
-18599
-18412
-18227
-18044
-18193
-18010
-17968
-18012
-17861
-17682
-17495
-17319
-17175
-17164
-17121
-17019
-16960
-16883
-16833
-16664
-16609
-16442
-16495
-16547
-16504
-16338
-16174
-16190
-16027
-15896
-15736
-15578
-15422
-15379
-15291
-15249
-15096
-15056
-14994
-14898
-14824
-14675
-14528
-14606
-14576
-14430
-14285
-14142
-14000
-13859
-13720
-13582
-13446
-13311
-13400
-13278
-13145
-13013
-12882
-12753
-12625
-12498
-12372
-12248
-12125
-12003
-11882
-11763
-11645
-11627
-11713
-11595
-11478
-11363
-11317
-11421
-11306
-11265
-11152
-11040
-10929
-10908
-10798
-10689
-10582
-10476
-10332
-10264
-10161
-10059
-9958
-9858
-9823
-9724
-9757
-9659
-9562
-9466
-9371
-9277
-9257
-9164
-9056
-8965
-8875
-8812
-8828
-8764
-8866
-9013
-9133
-9041
-8950
-8860
-8771
-8772
-8768
-8680
-8578
-8539
-8517
-8431
-8411
-8560
-8474
-8515
-8429
-8344
-8260
-8177
-8095
-8013
-7932
-7854
-7861
-7782
-7704
-7699
-7685
-7737
-7831
-7913
-7833
-7966
-8123
-8041
-7960
-8117
-8078
-7997
-8071
-8186
-8300
-8454
-8565
-8717
-8866
-8777
-9008
-9112
-9250
-9157
-9277
-9471
-9564
-9698
-9923
-9929
-9829
-9942
-10054
-10171
-10247
-10362
-10258
-10402
-10597
-10809
-11000
-11218
-11434
-11688
-11940
-12189
-12413
-12601
-12827
-13093
-13301
-13527
-13724
-13761
-13936
-14001
-14133
-14343
-14512
-14477
-14332
-14334
-14409
-14410
-14413
-14456
-14417
-14312
-14314
-14170
-14028
-14073
-13932
-13792
-13653
-13704
-13566
-13430
-13295
-13389
-13360
-13266
-13215
-13122
-13178
-13046
-12915
-12933
-12803
-12822
-12693
-12565
-12439
-12314
-12190
-12067
-11946
-11826
-11707
-11589
-11620
-11503
-11387
-11379
-11265
-11159
-11047
-11018
-10947
-10884
-10775
-10667
-10706
-10598
-10491
-10385
-10281
-10178
-10222
-10272
-10169
-10067
-9966
-9866
-9767
-9669
-9774
-9878
-9967
-10062
-9961
-9861
-9762
-9664
-9567
-9471
-9618
-9521
-9627
-9772
-9674
-9577
-9481
-9386
-9292
-9198
-9105
-9013
-8922
-8832
-8743
-8655
-8568
-8482
-8397
-8312
-8228
-8145
-8063
-7982
-7902
-7822
-7743
-7665
-7588
-7512
-7436
-7361
-7287
-7214
-7141
-7069
-6998
-6927
-6857
-6894
-6824
-6755
-6687
-6620
-6553
-6487
-6422
-6357
-6293
-6410
-6345
-6281
-6418
-6353
-6529
-6663
-6812
-6979
-6909
-7042
-7274
-7486
-7756
-7678
-7994
-8264
-8361
-8277
-8470
-8385
-8579
-8493
-8643
-8556
-8470
-8385
-8491
-8406
-8537
-8595
-8638
-8625
-8596
-8649
-8562
-8476
-8391
-8471
-8386
-8302
-8262
-8179
-8155
-8237
-8154
-8202
-8395
-8310
-8226
-8379
-8529
-8517
-8561
-8669
-8858
-8929
-9032
-9165
-9073
-8982
-8892
-9026
-8935
-8845
-8830
-8741
-8653
-8566
-8662
-8853
-8941
-9102
-9234
-9302
-9314
-9368
-9274
-9257
-9330
-9310
-9216
-9123
-9099
-9007
-9138
-9117
-9168
-9076
-8916
-8791
-8761
-8673
-8586
-8519
-8492
-8465
-8380
-8296
-8409
-8544
-8458
-8373
-8289
-8330
-8450
-8569
-8483
-8398
-8313
-8319
-8365
-8431
-8546
-8601
-8514
-8428
-8343
-8419
-8474
-8609
-8662
-8575
-8489
-8404
-8319
-8235
-8388
-8500
-8656
-8569
-8483
-8640
-8644
-8557
-8471
-8386
-8302
-8440
-8451
-8366
-8349
-8489
-8628
-8632
-8588
-8502
-8416
-8464
-8379
-8507
-8640
-8720
-8763
-8675
-8588
-8502
-8475
-8457
-8462
-8377
-8293
-8209
-8126
-8044
-7963
-7862
-7844
-7765
-7687
-7610
-7533
-7457
-7382
-7368
-7294
-7220
-7190
-7118
-7120
-7091
-7020
-6949
-6938
-6872
-6803
-6734
-6666
-6599
-6532
-6466
-6401
-6336
-6291
-6327
-6298
-6326
-6345
-6281
-6349
-6285
-6272
-6209
-6146
-6084
-6023
-5962
-5902
-5842
-5783
-5725
-5667
-5693
-5695
-5637
-5580
-5543
-5524
-5527
-5471
-5416
-5361
-5307
-5253
-5200
-5147
-5095
-5044
-4993
-4943
-5024
-5183
-5230
-5371
-5317
-5263
-5210
-5157
-5105
-5053
-5002
-4951
-4901
-4851
-4802
-4753
-4705
-4737
-4689
-4836
-4787
-4739
-4691
-4644
-4597
-4550
-4504
-4458
-4413
-4368
-4324
-4280
-4237
-4194
-4152
-4110
-4068
-4027
-3986
-3946
-4061
-4271
-4228
-4185
-4143
-4101
-4059
-4018
-3977
-3937
-3897
-3857
-4137
-4329
-4285
-4242
-4199
-4156
-4114
-4072
-4031
-3990
-3950
-3910
-3870
-4049
-4139
-4097
-4055
-4014
-3973
-3933
-3893
-3854
-4128
-4270
-4227
-4463
-4594
-4548
-4502
-4456
-4411
-4366
-4322
-4278
-4235
-4192
-4150
-4108
-4066
-4025
-3984
-4048
-4138
-4096
-4055
-4014
-3973
-3933
-3893
-3854
-3815
-3776
-3738
-3700
-3662
-3625
-3588
-3826
-3932
-3892
-3853
-3814
-3775
-3737
-3699
-3661
-3624
-3587
-3551
-3515
-3697
-4011
-3970
-3930
-3890
-3851
-3812
-3773
-3735
-3697
-3659
-3622
-3585
-3549
-3513
-3477
-3442
-3407
-3372
-3338
-3304
-3270
-3237
-3204
-3171
-3139
-3107
-3075
-3044
-3013
-2982
-2952
-2922
-2892
-2863
-2834
-2805
-2776
-2748
-2720
-2692
-2665
-2990
-3186
-3154
-3122
-3090
-3059
-3028
-2997
-2967
-2937
-2907
-2877
-2848
-2819
-2790
-2762
-2734
-2706
-2678
-2796
-2768
-2958
-2928
-3155
-3123
-3197
-3164
-3132
-3100
-3068
-3037
-3006
-2975
-2945
-2915
-3200
-3293
-3260
-3227
-3194
-3162
-3130
-3098
-3066
-3035
-3004
-2973
-2943
-2913
-2883
-2854
-2825
-2796
-2768
-2740
-2843
-2814
-2785
-2757
-2951
-2921
-2891
-2862
-2833
-2804
-2775
-2747
-2719
-2691
-2664
-2637
-2610
-2583
-2557
-2531
-2505
-2479
-2454
-2429
-2404
-2379
-2355
-2331
-2307
-2283
-2260
-2237
-2214
-2191
-2169
-2147
-2437
-2539
-2513
-2487
-2462
-2437
-2412
-2387
-2363
-2339
-2315
-2291
-2268
-2245
-2222
-2199
-2176
-2154
-2132
-2131
-2109
-2202
-2179
-2317
-2264
-2241
-2218
-2195
-2173
-2151
-2129
-2107
-2085
-2064
-2043
-2005
-2007
-1986
-1966
-1946
-1926
-1906
-1886
-1867
-1848
-1829
-1810
-1791
-1773
-1755
-1737
-1719
-1701
-1646
-1629
-1615
-1598
-1582
-1566
-1550
-1534
-1615
-1813
-1794
-1776
-1758
-1740
-1722
-1704
-1776
-1865
-1846
-1827
-1808
-1789
-1771
-1753
-1735
-1717
-1699
-1681
-1664
-1647
-1630
-1613
-1596
-1629
-1612
-1595
-1579
-1622
-1605
-1588
-1572
-1556
-1540
-1524
-1508
-1492
-1477
-1462
-1447
-1491
-1476
-1461
-1446
-1431
-1416
-1401
-1386
-1385
-1371
-1357
-1343
-1329
-1315
-1301
-1287
-1274
-1261
-1264
-1247
-1234
-1221
-1208
-1195
-1183
-1171
-1159
-1147
-1135
-1123
-1111
-1099
-1087
-1076
-1065
-1054
-1048
-1038
-1027
-1039
-1058
-1047
-1036
-1084
-1073
-1062
-1051
-1040
-1029
-1018
-1007
-996
-986
-976
-982
-972
-1016
-1005
-994
-984
-974
-1153
-1319
-1305
-1291
-1278
-1265
-1252
-1239
-1226
-1213
-1160
-1148
-1221
-1208
-1195
-1183
-1171
-1159
-1147
-1135
-1123
-1111
-1099
-1087
-1076
-1065
-1054
-1043
-1032
-1037
-1006
-995
-985
-954
-944
-890
-881
-872
-863
-854
-1049
-1326
-1312
-1298
-1285
-1272
-1259
-1246
-1385
-1367
-1353
-1339
-1325
-1311
-1297
-1284
-1271
-1258
-1245
-1232
-1219
-1206
-1193
-1181
-1169
-1138
-1126
-1190
-1178
-1166
-1154
-1142
-1130
-1118
-1106
-1094
-1083
-1072
-1061
-1050
-1039
-1028
-1017
-1006
-1062
-1265
-1488
-1473
-1458
-1443
-1428
-1413
-1398
-1384
-1370
-1356
-1342
-1328
-1314
-1300
-1286
-1273
-1354
-1381
-1367
-1353
-1339
-1325
-1311
-1297
-1284
-1271
-1258
-1245
-1232
-1219
-1206
-1193
-1181
-1169
-1157
-1145
-1133
-1121
-1093
-1282
-1269
-1256
-1243
-1230
-1217
-1204
-1191
-1179
-1167
-1155
-1143
-1131
-1119
-1107
-1095
-1084
-1073
-1062
-1051
-1040
-1003
-948
-938
-928
-918
-908
-898
-923
-913
-1068
-1057
-1046
-1035
-1024
-1013
-1002
-1044
-1129
-1117
-1105
-1093
-1082
-1071
-1060
-1049
-1038
-1027
-1016
-1005
-994
-984
-974
-964
-954
-1062
-987
-977
-967
-957
-947
-937
-927
-917
-907
-897
-888
-879
-870
-861
-852
-844
-835
-826
-817
-829
-820
-811
-802
-793
-785
-777
-769
-761
-753
-745
-737
-729
-742
-734
-726
-678
-671
-664
-657
-650
-640
-633
-670
-663
-656
-649
-642
-635
-628
-621
-614
-607
-711
-703
-695
-688
-856
-1039
-1028
-1017
-1006
-1170
-1344
-1517
-1722
-1932
-2184
-2417
-2703
-2944
-3258
-3549
-3808
-3769
-3810
-3771
-3978
-3938
-3898
-4068
-4098
-4056
-4216
-4329
-4530
-4729
-4966
-5201
-5148
-5341
-5366
-5312
-5258
-5205
-5152
-5327
-5538
-5657
-5741
-5858
-5875
-6052
-6248
-6412
-6347
-6283
-6220
-6157
-6104
-6220
-6157
-6400
-6658
-6781
-7035
-7155
-7359
-7563
-7845
-7872
-8142
-8424
-8339
-8544
-8772
-8786
-8698
-8610
-8787
-8982
-9263
-9460
-9412
-9611
-9805
-9997
-10023
-9909
-9809
-9727
-9646
-9607
-9646
-9715
-9760
-9805
-9850
-9894
-9902
-9802
-9814
-9826
-9727
-9629
-9593
-9595
-9532
-9436
-9440
-9609
-9693
-9595
-9596
-9552
-9679
-9846
-9747
-9857
-9758
-9780
-9784
-9789
-9778
-9680
-9583
-9487
-9388
-9393
-9562
-9590
-9626
-9681
-9584
-9569
-9545
-9615
-9575
-9479
-9488
-9494
-9398
-9303
-9209
-9273
-9382
-9353
-9371
-9282
-9362
-9323
-9229
-9203
-9177
-9238
-9145
-9165
-9134
-9042
-9087
-9108
-9184
-9177
-9085
-8994
-8962
-8985
-8988
-8898
-8919
-8829
-8996
-9051
-9029
-8938
-8914
-8824
-8735
-8647
-8702
-8601
-8538
-8455
-8410
-8325
-8304
-8220
-8141
-8059
-8021
-7940
-7827
-7762
-7551
-7582
-7633
-7742
-7853
-7875
-7943
-8153
-8316
-8232
-8433
-8629
-8829
-9004
-9177
-9346
-9523
-9695
-9865
-10021
-10217
-10333
-10497
-10391
-10553
-10744
-10933
-11120
-11305
-11446
-11468
-11630
-11810
-11952
-12152
-12350
-12546
-12740
-12890
-12909
-12920
-12910
-12867
-12806
-12703
-12601
-12500
-12557
-12482
-12357
-12298
-12162
-12075
-11838
-11672
-11550
-11592
-11557
-11523
-11490
-11456
-11529
-11676
-11559
-11762
-11963
-12169
-12373
-12575
-12449
-12643
-12836
-13056
-13245
-13438
-13629
-13785
-13894
-14024
-14153
-14371
-14564
-14418
-14554
-14712
-14868
-15023
-15176
-15328
-15421
-15563
-15705
-15795
-15940
-16084
-16227
-16368
-16508
-16646
-16783
-16863
-16694
-16830
-16661
-16742
-16822
-16957
-17011
-17021
-17128
-17299
-17474
-17626
-17753
-17873
-18015
-18132
-18254
-18071
-18188
-18309
-18373
-18437
-18556
-18618
-18431
-18561
-18594
-18407
-18519
-18333
-18231
-18236
-18351
-18481
-18594
-18739
-18843
-18981
-19042
-19092
-19204
-19309
-19390
-19452
-19257
-19407
-19516
-19624
-19736
-19830
-19888
-19896
-19994
-20049
-20104
-20150
-20252
-20049
-20152
-20254
-20355
-20359
-20363
-20423
-20466
-20525
-20389
-20184
-20230
-20265
-20382
-20479
-20554
-20629
-20703
-20733
-20823
-20710
-20757
-20751
-20801
-20820
-20611
-20725
-20838
-20910
-21043
-20832
-20623
-20416
-20531
-20325
-20401
-20476
-20271
-20389
-20505
-20578
-20677
-20735
-20763
-20837
-20884
-20940
-20987
-20776
-20825
-20895
-21007
-21054
-21085
-21171
-21280
-21388
-21453
-21383
-21257
-21093
-20889
-20873
-20864
-20815
-20808
-20801
-20889
-20912
-20943
-20733
-20525
-20662
-20663
-20670
-20761
-20809
-20898
-20732
-20713
-20577
-20396
-20296
-20134
-19931
-19869
-19932
-20030
-20077
-20174
-20276
-20321
-20347
-20345
-20141
-20203
-20000
-19799
-19864
-19929
-19895
-19903
-19703
-19769
-19875
-19963
-20067
-20170
-20289
-20382
-20418
-20454
-20249
-20292
-20431
-20546
-20598
-20700
-20722
-20778
-20570
-20628
-20652
-20691
-20736
-20814
-20868
-20890
-20928
-20949
-21026
-21039
-21099
-21118
-21137
-20925
-21019
-21135
-21272
-21363
-21373
-21412
-21445
-21483
-21467
-21458
-21489
-21355
-21387
-21172
-21201
-21229
-21224
-21011
-21038
-21042
-20831
-20622
-20415
-20463
-20488
-20509
-20551
-20615
-20679
-20680
-20720
-20742
-20753
-20545
-20560
-20487
-20506
-20548
-20561
-20355
-20151
-20075
-20059
-20093
-19891
-19973
-20004
-19803
-19819
-19765
-19802
-19898
-20012
-20086
-20168
-19966
-19766
-19568
-19620
-19671
-19722
-19732
-19718
-19520
-19324
-19358
-19412
-19445
-19432
-19475
-19379
-19349
-19225
-19152
-19162
-19225
-19032
-18928
-18796
-18607
-18468
-18283
-18099
-17993
-17941
-18031
-18098
-18120
-18142
-18208
-18098
-18009
-17997
-17816
-17727
-17596
-17508
-17401
-17326
-17170
-17034
-16981
-16969
-16917
-16747
-16767
-16648
-16481
-16352
-16336
-16419
-16524
-16531
-16365
-16193
-16119
-16182
-16180
-16148
-16248
-16085
-15923
-15986
-16006
-16039
-15878
-15888
-16057
-16130
-16077
-16110
-16077
-16244
-16081
-16196
-16332
-16344
-16480
-16533
-16591
-16619
-16670
-16721
-16553
-16605
-16438
-16491
-16571
-16651
-16491
-16501
-16404
-16239
-16179
-16189
-16244
-16258
-16313
-16396
-16255
-16092
-16177
-16256
-16205
-16042
-16128
-16128
-16097
-16137
-16135
-16100
-16111
-16016
-16028
-16040
-16040
-16091
-16070
-15894
-15777
-15791
-15850
-15803
-15856
-15915
-15973
-16031
-16088
-16144
-16229
-16313
-16356
-16370
-16278
-16115
-16025
-16042
-15881
-15707
-15682
-15743
-15726
-15640
-15555
-15532
-15443
-15489
-15551
-15642
-15726
-15740
-15829
-15888
-15906
-15964
-15980
-15998
-16055
-16095
-16109
-16124
-15962
-15938
-15956
-15932
-15950
-16008
-15996
-15920
-15832
-15745
-15659
-15561
-15476
-15499
-15455
-15518
-15362
-15426
-15408
-15471
-15534
-15378
-15524
-15368
-15571
-15666
-15773
-15968
-16078
-16192
-16348
-16184
-16253
-16423
-16509
-16663
-16740
-16878
-16960
-17115
-17152
-17222
-17425
-17607
-17430
-17599
-17784
-17911
-18140
-18351
-18514
-18654
-18467
-18487
-18465
-18280
-18097
-17915
-17987
-18133
-18308
-18450
-18564
-18620
-18821
-18961
-19140
-18948
-19044
-19139
-19150
-19156
-19155
-19232
-19359
-19271
-19248
-19055
-18991
-18928
-18996
-18805
-18967
-19056
-18865
-18872
-18929
-18973
-19105
-19221
-19226
-19177
-19230
-19310
-19116
-19244
-19252
-19059
-18868
-18679
-18792
-18830
-18914
-19062
-18996
-18805
-18616
-18775
-18963
-18750
-18668
-18627
-18440
-18255
-18072
-18020
-18011
-17830
-17651
-17646
-17644
-17653
-17605
-17510
-17456
-17281
-17204
-17174
-17121
-17135
-16963
-16793
-16763
-16757
-16589
-16583
-16564
-16398
-16420
-16459
-16433
-16430
-16321
-16253
-16336
-16389
-16468
-16427
-16415
-16404
-16403
-16426
-16472
-16412
-16352
-16244
-16177
-15965
-15917
-15879
-15842
-15683
-15672
-15621
-15464
-15309
-15155
-15149
-14997
-14966
-14922
-14852
-14743
-14618
-14511
-14428
-14283
-14140
-14144
-14171
-14029
-14034
-13893
-13882
-13912
-13901
-13989
-14076
-14163
-14333
-14459
-14542
-14624
-14623
-14582
-14584
-14438
-14439
-14400
-14255
-14218
-14181
-14121
-14085
-13920
-13780
-13724
-13668
-13637
-13582
-13446
-13311
-13177
-13169
-13203
-13176
-13044
-13019
-12994
-12863
-12840
-12687
-12666
-12645
-12624
-12603
-12476
-12351
-12203
-12056
-12017
-11938
-11818
-11699
-11623
-11612
-11495
-11503
-11405
-11350
-11236
-11207
-11070
-10959
-10867
-10758
-10650
-10519
-10431
-10326
-10428
-10323
-10383
-10467
-10362
-10422
-10317
-10419
-10372
-10286
-10201
-10116
-10014
-10101
-10165
-10251
-10378
-10274
-10171
-10339
-10381
-10465
-10360
-10402
-10297
-10339
-10235
-10132
-10030
-10117
-10015
-9914
-9920
-9902
-9820
-9803
-9704
-9624
-9527
-9407
-9288
-9229
-9146
-9054
-8973
-8883
-8804
-8677
-8590
-8504
-8356
-8290
-8283
-8282
-8199
-8136
-8054
-8065
-7964
-7960
-7938
-7950
-7888
-7809
-7730
-7694
-7616
-7579
-7503
-7543
-7507
-7431
-7356
-7282
-7227
-7154
-7116
-7044
-7047
-6976
-6906
-6870
-6835
-6766
-6732
-6698
-6630
-6637
-6644
-6611
-6578
-6594
-6633
-6706
-6638
-6571
-6505
-6579
-6595
-6610
-6683
-6616
-6592
-6603
-6536
-6470
-6405
-6417
-6323
-6259
-6196
-6133
-6071
-6087
-6103
-6041
-6057
-5996
-6012
-6057
-6136
-6074
-6013
-6092
-6132
-6065
-6033
-6039
-6007
-6047
-6020
-6026
-5965
-6006
-6042
-5981
-5921
-5822
-5768
-5647
-5590
-5505
-5449
-5365
-5311
-5300
-5271
-5189
-5253
-5089
-5139
-5130
-5218
-5165
-5113
-5056
-5072
-4982
-4869
-4781
-4810
-4858
-4945
-4947
-4897
-4847
-4852
-4959
-5050
-4999
-4919
-4970
-4920
-4947
-4897
-4847
-4769
-4721
-4673
-4626
-4579
-4533
-4588
-4537
-4491
-4409
-4481
-4592
-4620
-4679
-4844
-4795
-4873
-4996
-4945
-5057
-5006
-5117
-5065
-5125
-5160
-5229
-5176
-5309
-5255
-5185
-5133
-5100
-5082
-5120
-5068
-5017
-5072
-5000
-4949
-4878
-4829
-4780
-4732
-4684
-4637
-4649
-4827
-4948
-4987
-4937
-4977
-4967
-4917
-4867
-4818
-4769
-4848
-4910
-4860
-4811
-4762
-4730
-4674
-4627
-4580
-4534
-4488
-4443
-4398
-4384
-4340
-4327
-4283
-4240
-4228
-4216
-4204
-4192
-4181
-4170
-4104
-4023
-3943
-3903
-3863
-3824
-3746
-3669
-3672
-3675
-3638
-3602
-3605
-3529
-3494
-3499
-3699
-3768
-3730
-3687
-3791
-3732
-3713
-3675
-3774
-3736
-3698
-3660
-3623
-3697
-3844
-3805
-3951
-3911
-3950
-3965
-3925
-3943
-3866
-3806
-3968
-4079
-4239
-4196
-4275
-4426
-4376
-4332
-4283
-4185
-4147
-4100
-3963
-3918
-3913
-3989
-4120
-4078
-4037
-3996
-3956
-4111
-4088
-4047
-4050
-4043
-3965
-3848
-3844
-3805
-3766
-3728
-3709
-3627
-3529
-3493
-3357
-3222
-3189
-3096
-3061
-2938
-2908
-2878
-2849
-2820
-2791
-2763
-2535
-2509
-2315
-2291
-2073
-1971
-1822
-1803
-1679
-1697
-1680
-1643
-1468
-1303
-1289
-981
-861
-852
-843
-834
-770
-732
-613
-606
-599
-482
-511
-322
-259
-290
-266
-263
-302
-298
-295
-253
-163
-35
-34
-33
7
6
5
4
13
12
11
20
67
163
359
371
367
412
407
451
389
385
493
503
512
570
603
596
682
858
849
840
831
822
808
973
1137
1260
1286
1283
1309
1406
1463
1448
1481
1466
1451
1436
1421
1488
1555
1539
1523
1507
1549
1533
1517
1501
1485
1470
1455
1440
1473
1458
1443
1428
1413
1398
1384
1370
1356
1342
1328
1314
1300
1241
1221
1201
1188
1176
1157
1145
1181
1128
1116
1009
998
988
962
871
807
790
678
671
664
657
650
452
261
167
-21
-20
-19
-49
-139
-305
-301
-297
-294
-291
-457
-581
-575
-569
-563
-557
-551
-836
-827
-818
-1021
-1205
-1192
-1180
-1168
-1156
-1144
-1132
-1120
-1392
-1378
-1625
-1608
-1591
-1575
-1614
-1676
-1659
-1642
-1625
-1608
-1591
-1832
-1997
-2161
-2139
-2117
-2095
-2218
-2356
-2527
-2501
-2475
-2450
-2425
-2400
-2375
-2569
-2631
-2604
-2856
-2827
-3072
-3266
-3233
-3200
-3167
-3391
-3357
-3419
-3384
-3350
-3316
-3561
-3799
-3760
-3722
-3878
-3839
-3800
-3761
-3996
-3956
-3916
-4027
-3986
-3946
-4083
-4097
-4110
-4202
-4159
-4117
-4186
-4327
-4522
-4476
-4431
-4386
-4342
-4298
-4254
-4211
-4284
-4241
-4198
-4155
-4285
-4242
-4199
-4156
-4114
-4072
-4282
-4478
-4433
-4388
-4344
-4300
-4256
-4213
-4170
-4128
-4336
-4565
-4747
-4699
-4651
-4604
-4808
-5044
-4993
-4943
-4893
-4844
-4795
-4747
-4699
-4823
-4990
-4940
-4890
-4841
-4792
-4744
-4696
-4648
-4601
-4554
-4508
-4462
-4417
-4372
-4534
-4635
-4588
-4542
-4496
-4450
-4405
-4360
-4316
-4272
-4229
-4186
-4144
-4102
-4060
-4019
-3978
-4094
-4299
-4597
-4550
-4504
-4458
-4413
-4368
-4324
-4280
-4237
-4194
-4152
-4110
-4068
-4027
-3986
-3946
-3906
-3866
-3827
-4142
-4442
-4397
-4352
-4708
-4660
-4613
-4566
-4520
-4474
-4429
-4384
-4340
-4296
-4252
-4209
-4166
-4485
-4738
-4690
-4643
-4596
-4549
-4503
-4457
-4412
-4367
-4323
-4538
-4492
-4447
-4639
-4592
-4546
-4500
-4679
-4632
-4585
-4539
-4493
-4448
-4403
-4358
-4314
-4270
-4431
-4645
-4844
-4947
-4897
-4847
-4798
-4749
-4943
-4893
-4844
-4795
-4983
-4933
-4883
-4834
-4785
-4737
-4689
-4642
-4595
-4549
-4503
-4457
-4412
-4367
-4323
-4279
-4236
-4193
-4319
-4430
-4385
-4341
-4297
-4253
-4210
-4167
-4125
-4083
-4042
-4001
-4200
-4403
-4358
-4314
-4459
-4414
-4369
-4406
-4361
-4317
-4273
-4230
-4187
-4145
-4103
-4061
-4020
-4045
-4004
-3963
-3934
-3894
-3855
-3816
-3777
-3739
-3701
-3663
-3626
-3589
-3553
-3630
-3593
-3599
-3562
-3526
-3490
-3455
-3420
-3385
-3457
-3640
-3603
-3566
-3530
-3727
-3923
-3975
-4090
-4049
-4267
-4564
-4971
-5283
-5565
-5906
-5846
-6213
-6150
-6088
-6453
-6558
-6918
-7286
-7616
-7953
-8288
-8560
-8733
-9031
-8940
-9205
-9487
-9807
-9708
-9996
-10310
-10206
-10428
-10529
-10748
-10704
-11000
-11242
-11439
-11324
-11524
-11709
-11932
-12139
-12301
-12542
-12821
-13016
-12950
-13084
-13318
-13498
-13381
-13546
-13654
-13727
-13849
-13968
-14197
-14354
-14510
-14364
-14487
-14341
-14432
-14573
-14727
-14579
-14433
-14628
-14748
-14666
-14834
-14952
-14981
-15171
-15133
-15136
-15057
-15237
-15084
-15271
-15118
-15264
-15479
-15662
-15843
-16013
-16216
-16383
-16371
-16456
-16321
-16312
-16408
-16481
-16594
-16571
-16518
-16466
-16557
-16648
-16738
-16874
-16967
-17061
-17214
-17041
-17191
-17346
-17500
-17580
-17723
-17896
-18028
-18014
-17999
-17972
-18057
-18138
-18118
-18153
-18009
-17949
-17935
-18010
-17985
-17804
-17962
-17937
-17913
-17733
-17710
-17594
-17466
-17340
-17192
-17152
-16921
-16905
-16937
-16939
-16730
-16533
-16394
-16170
-15949
-15805
-15702
-15485
-15377
-15309
-15257
-15064
-14977
-14891
-14845
-14760
-14718
-14727
-14681
-14534
-14492
-14334
-14294
-14226
-14186
-13985
-13950
-13946
-13952
-13906
-13886
-13845
-13814
-13861
-13786
-13794
-13719
-13539
-13453
-13398
-13263
-13130
-13229
-13269
-13295
-13297
-13269
-13147
-13171
-13099
-13001
-12904
-12808
-12717
-12646
-12562
-12536
-12469
-12322
-12198
-12112
-12050
-12008
-11908
-11785
-11666
-11563
-11473
-11323
-11209
-11084
-10977
-10848
-10799
-10726
-10655
-10592
-10473
-10405
-10333
-10240
-10147
-10037
-9912
-9788
-9546
-9325
-9231
-9014
-8843
-8588
-8392
-8227
-8064
-7945
-7752
-7568
-7432
-7316
-7031
-6719
-6467
-6402
-6100
-5906
-5711
-5454
-5305
-5251
-5280
-5278
-5235
-5384
-5427
-5581
-5776
-5921
-6023
-6207
-6144
-6303
-6460
-6574
-6571
-6790
-6792
-6653
-6614
-6561
-6509
-6426
-6296
-6224
-6297
-6342
-6410
-6541
-6694
-6822
-7037
-7250
-7438
-7617
-7823
-8005
-8207
-8367
-8447
-8363
-8355
-8445
-8620
-8793
-8965
-9135
-9304
-9471
-9541
-9585
-9572
-9543
-9681
-9717
-9744
-9779
-9797
-9902
-10063
-10137
-10303
-10467
-10630
-10791
-10979
-11172
-11363
-11592
-11818
-12019
-12145
-12349
-12551
-12751
-12844
-12792
-13008
-13154
-13341
-13527
-13711
-13916
-14074
-14231
-14409
-14534
-14681
-14832
-14923
-15013
-15083
-15173
-15261
-15372
-15416
-15482
-15574
-15640
-15747
-15831
-15993
-16130
-16266
-16344
-16413
-16418
-16523
-16638
-16734
-16807
-16901
-16731
-16826
-16927
-17005
-16834
-16907
-16985
-17055
-17181
-17251
-17342
-17432
-17477
-17542
-17587
-17658
-17699
-17768
-17838
-17900
-17968
-18052
-18168
-18283
-18396
-18425
-18487
-18542
-18596
-18555
-18580
-18588
-18572
-18456
-18440
-18384
-18439
-18494
-18572
-18628
-18613
-18674
-18735
-18772
-18888
-18969
-19083
-19195
-19246
-19053
-19106
-19177
-19229
-19275
-19322
-19342
-19411
-19479
-19532
-19584
-19634
-19685
-19785
-19890
-19938
-19950
-19961
-19953
-19971
-20075
-19921
-19969
-20072
-20175
-20293
-20393
-20486
-20578
-20670
-20733
-20829
-20924
-21012
-21028
-21073
-21111
-21148
-21211
-21296
-21281
-21346
-21430
-21513
-21639
-21720
-21800
-21871
-21949
-21963
-21985
-22062
-22122
-22197
-22272
-22347
-22444
-22520
-22580
-22673
-22766
-22824
-22865
-22940
-23030
-23125
-23172
-23261
-23348
-23355
-23441
-23549
-23578
-23583
-23666
-23772
-23798
-23856
-23772
-23703
-23615
-23528
-23469
-23464
-23499
-23448
-23503
-23545
-23564
-23606
-23646
-23528
-23485
-23393
-23413
-23399
-23461
-23467
-23495
-23500
-23561
-23603
-23663
-23723
-23782
-23720
-23706
-23723
-23655
-23659
-23663
-23769
-23829
-23831
-23827
-23830
-23832
-23813
-23838
-23678
-23496
-23324
-23175
-22949
-22775
-22628
-22499
-22273
-22315
-22286
-22241
-22189
-22179
-22183
-22216
-22291
-22271
-22219
-22045
-22093
-22169
-22245
-22313
-22410
-22483
-22555
-22627
-22720
-22790
-22773
-22673
-22681
-22453
-22446
-22492
-22514
-22592
-22613
-22684
-22456
-22425
-22434
-22443
-22481
-22574
-22697
-22773
-22849
-22731
-22681
-22646
-22619
-22633
-22654
-22690
-22710
-22730
-22502
-22524
-22457
-22287
-22303
-22327
-22401
-22474
-22547
-22619
-22690
-22760
-22829
-22600
-22511
-22583
-22630
-22707
-22760
-22532
-22609
-22705
-22774
-22844
-22833
-22830
-22861
-22936
-23003
-22772
-22608
-22533
-22368
-22144
-21956
-21836
-21701
-21483
-21438
-21379
-21336
-21271
-21162
-21008
-20904
-20782
-20614
-20536
-20330
-20194
-20101
-19988
-19968
-19768
-19570
-19507
-19418
-19223
-19100
-19040
-18849
-18701
-18619
-18433
-18396
-18211
-18078
-17898
-17817
-17646
-17519
-17435
-17366
-17291
-17230
-17170
-17118
-17059
-17017
-16987
-16816
-16759
-16703
-16594
-16568
-16402
-16307
-16255
-16092
-15996
-15835
-15817
-15658
-15567
-15411
-15397
-15383
-15370
-15344
-15284
-15401
-15246
-15093
-15063
-14912
-14926
-14776
-14628
-14751
-14850
-14701
-14816
-14885
-14976
-15120
-15203
-15050
-14980
-15094
-15103
-15131
-15159
-15216
-15063
-14912
-14942
-14940
-14865
-14768
-14695
-14719
-14571
-14477
-14384
-14240
-14187
-14302
-14210
-14067
-14001
-13860
-13773
-13635
-13491
-13364
-13176
-13009
-12878
-12804
-12675
-12594
-12467
-12342
-12388
-12263
-12055
-11934
-11814
-11695
-11577
-11464
-11369
-11255
-11142
-11212
-11099
-10987
-11063
-11031
-10941
-10769
-10661
-10554
-10448
-10343
-10304
-10427
-10322
-10218
-10115
-10013
-9912
-9812
-9713
-9615
-9518
-9422
-9327
-9233
-9140
-9048
-8957
-8867
-8778
-8690
-8710
-8713
-8625
-8538
-8758
-8670
-8583
-8497
-8642
-8805
-8988
-8898
-9065
-9254
-9161
-9069
-9258
-9461
-9366
-9272
-9179
-9225
-9315
-9221
-9128
-9026
-9041
-9119
-9027
-8936
-8846
-8757
-8669
-8582
-8496
-8410
-8325
-8241
-8158
-8186
-8273
-8213
-8130
-8048
-7992
-8020
-7939
-7910
-7921
-7841
-7762
-7684
-7607
-7530
-7545
-7469
-7394
-7371
-7360
-7286
-7288
-7290
-7285
-7212
-7286
-7213
-7196
-7123
-7051
-6980
-6910
-6840
-6771
-6703
-6635
-6568
-6502
-6436
-6371
-6307
-6334
-6270
-6207
-6144
-6082
-6021
-5960
-5900
-5840
-5781
-5723
-5665
-5608
-5551
-5495
-5439
-5384
-5330
-5276
-5331
-5385
-5331
-5277
-5224
-5171
-5119
-5067
-5016
-4965
-4915
-4865
-4816
-4767
-4719
-4671
-4709
-4717
-4669
-4622
-4575
-4529
-4483
-4438
-4393
-4447
-4402
-4472
-4427
-4382
-4338
-4294
-4251
-4208
-4165
-4123
-4081
-4040
-3999
-3958
-3918
-3839
-3800
-3761
-3723
-3685
-3648
-3611
-3574
-3577
-3569
-3533
-3497
-3461
-3426
-3433
-3484
-3449
-3414
-3379
-3345
-3311
-3277
-3205
-3214
-3181
-3149
-3117
-3085
-3054
-3023
-2992
-2962
-2932
-2902
-2872
-2843
-2814
-2785
-2757
-2729
-2701
-2673
-2646
-2619
-2592
-2566
-2540
-2514
-2488
-2424
-2496
-2471
-2446
-2451
-2549
-2595
-2569
-2543
-2517
-2546
-2520
-2494
-2469
-2444
-2419
-2394
-2370
-2346
-2322
-2298
-2274
-2251
-2228
-2205
-2182
-2160
-2138
-2116
-2094
-2073
-2086
-2138
-2194
-2217
-2194
-2172
-2150
-2128
-2106
-2084
-2063
-2042
-2021
-2000
-1979
-1959
-1939
-1919
-1899
-1879
-1860
-1841
-1822
-1803
-1784
-1766
-1748
-1730
-1712
-1694
-1843
-1987
-1967
-1993
-2044
-2023
-2002
-1981
-1961
-1941
-1921
-1901
-1881
-1862
-1843
-1824
-1805
-1786
-1768
-1750
-1732
-1714
-1696
-1679
-1662
-1645
-1628
-1611
-1594
-1578
-1562
-1546
-1530
-1514
-1498
-1483
-1468
-1453
-1438
-1423
-1408
-1393
-1379
-1365
-1351
-1337
-1323
-1427
-1582
-1566
-1550
-1534
-1518
-1502
-1486
-1471
-1456
-1441
-1426
-1411
-1396
-1382
-1368
-1354
-1564
-1741
-1723
-1705
-1687
-1670
-1653
-1636
-1619
-1602
-1585
-1569
-1553
-1537
-1521
-1505
-1849
-2124
-2367
-2343
-2319
-2295
-2272
-2249
-2226
-2203
-2180
-2158
-2136
-2114
-2092
-2071
-2050
-2206
-2183
-2161
-2267
-2244
-2221
-2198
-2175
-2153
-2131
-2109
-2087
-2066
-2045
-2024
-2003
-1982
-1962
-1942
-1922
-1902
-1882
-1863
-1844
-1825
-1806
-1787
-1769
-1990
-1970
-1950
-1930
-1910
-1890
-1871
-1938
-2065
-2044
-2023
-2002
-2304
-2280
-2257
-2597
-2571
-2545
-2727
-2699
-2671
-2644
-2617
-2590
-2564
-2538
-2625
-2598
-2515
-2489
-2464
-2439
-2414
-2389
-2365
-2341
-2317
-2293
-2270
-2247
-2224
-2201
-2178
-2156
-2134
-2112
-2090
-2069
-2048
-2027
-2006
-1985
-1965
-1945
-1925
-1905
-1885
-1866
-1847
-1996
-2137
-2242
-2219
-2196
-2174
-2152
-2130
-2108
-2086
-2065
-2044
-2023
-2002
-1981
-1961
-1941
-2141
-2119
-2331
-2307
-2283
-2260
-2237
-2214
-2191
-2169
-2147
-2125
-2103
-2081
-2060
-2224
-2241
-2218
-2195
-2173
-2151
-2129
-2107
-2085
-2064
-2352
-2328
-2304
-2280
-2488
-2463
-2438
-2413
-2388
-2617
-2848
-2819
-2790
-2762
-2734
-2706
-2678
-2651
-2624
-2597
-2571
-2861
-3089
-3058
-3027
-2996
-2966
-2936
-2906
-2876
-2847
-2818
-2789
-2761
-2733
-2965
-2935
-2905
-2875
-3255
-3598
-3561
-3525
-3489
-3454
-3419
-3384
-3350
-3601
-3564
-3528
-3492
-3457
-3422
-3387
-3353
-3319
-3285
-3382
-3488
-3453
-3418
-3383
-3349
-3619
-3582
-3546
-3789
-3751
-3713
-3675
-3638
-3601
-3564
-3528
-3492
-3457
-3422
-3387
-3353
-3319
-3285
-3252
-3219
-3186
-3154
-3122
-3090
-3059
-3028
-2997
-2967
-2937
-2907
-3201
-3408
-3373
-3339
-3305
-3271
-3238
-3205
-3172
-3140
-3108
-3076
-3045
-3014
-2983
-3292
-3259
-3226
-3193
-3605
-3568
-3532
-3496
-3461
-3426
-3391
-3357
-3323
-3289
-3256
-3223
-3190
-3158
-3126
-3094
-3063
-3032
-3001
-2970
-3288
-3484
-3449
-3414
-3379
-3345
-3311
-3277
-3244
-3211
-3178
-3146
-3114
-3082
-3051
-3020
-3214
-3181
-3342
-3308
-3274
-3241
-3208
-3175
-3143
-3111
-3079
-3048
-3017
-2986
-2956
-2926
-2896
-2867
-3134
-3102
-3307
-3273
-3240
-3207
-3174
-3142
-3110
-3078
-3047
-3016
-2985
-2955
-2925
-2895
-2866
-2975
-3039
-3008
-2977
-3190
-3443
-3408
-3373
-3339
-3305
-3271
-3238
-3205
-3172
-3297
-3263
-3476
-3716
-3678
-3641
-3604
-3567
-3531
-3495
-3460
-3425
-3390
-3356
-3322
-3288
-3255
-3222
-3189
-3157
-3125
-3205
-3272
-3239
-3206
-3173
-3141
-3109
-3077
-3046
-3015
-2984
-2954
-2924
-2894
-2865
-2836
-3052
-3282
-3249
-3216
-3183
-3151
-3119
-3087
-3056
-3025
-2994
-2964
-2934
-2904
-2874
-2845
-2816
-3121
-3145
-3362
-3328
-3294
-3261
-3228
-3195
-3163
-3131
-3099
-3067
-3036
-3005
-2974
-2944
-2914
-2884
-2855
-3149
-3207
-3174
-3142
-3110
-3078
-3047
-3016
-2985
-2955
-2925
-2895
-2866
-2837
-2808
-2779
-2751
-2723
-2908
-2878
-3050
-3019
-2988
-2958
-2928
-2898
-2868
-2839
-2810
-2781
-2753
-2725
-2697
-2670
-2643
-2616
-2589
-2563
-2765
-3037
-3006
-3099
-3067
-3036
-3005
-2974
-2944
-2914
-2884
-2855
-2826
-2797
-2769
-2741
-2713
-2685
-2862
-3061
-3030
-2999
-2968
-2938
-2908
-2878
-2849
-2820
-2791
-2763
-2735
-2707
-2679
-2652
-2625
-2806
-2873
-2844
-2815
-2786
-2758
-2730
-2702
-2674
-2909
-3114
-3082
-3051
-3020
-2989
-2959
-2929
-2899
-2869
-2840
-2921
-3028
-2997
-2967
-2937
-2907
-2877
-2848
-2989
-2959
-2929
-3292
-3259
-3226
-3193
-3161
-3129
-3097
-3065
-3034
-3074
-3348
-3314
-3280
-3247
-3214
-3181
-3149
-3117
-3085
-3054
-3023
-2992
-2962
-2932
-2902
-3211
-3178
-3391
-3357
-3443
-3408
-3495
-3460
-3425
-3390
-3356
-3322
-3288
-3255
-3222
-3189
-3157
-3125
-3093
-3062
-3234
-3501
-3465
-3430
-3395
-3361
-3327
-3293
-3260
-3227
-3194
-3162
-3130
-3098
-3066
-3035
-3004
-2973
-3120
-3122
-3090
-3059
-3028
-2997
-2967
-2937
-2907
-2877
-2848
-2819
-2790
-2762
-2734
-2886
-3070
-3039
-3008
-2977
-2947
-2917
-2887
-2858
-2829
-2800
-2771
-2743
-2715
-2687
-2660
-2658
-2612
-2585
-2559
-2533
-2507
-2605
-2788
-2760
-2732
-2898
-2868
-3123
-3091
-3060
-3191
-3159
-3281
-3248
-3215
-3182
-3150
-3118
-3086
-3055
-3024
-2993
-2963
-2933
-2903
-2873
-2844
-2815
-2976
-3125
-3093
-3062
-3031
-3000
-2969
-2939
-2909
-2879
-2850
-2821
-3139
-3107
-3183
-3400
-3365
-3511
-3692
-3655
-3832
-3793
-3755
-3717
-3679
-3642
-3605
-3568
-3532
-3496
-3461
-3471
-3615
-3578
-3542
-3506
-3470
-3435
-3400
-3365
-3331
-3297
-3263
-3230
-3197
-3164
-3132
-3259
-3286
-3253
-3220
-3187
-3155
-3123
-3091
-3060
-3029
-2998
-2967
-2937
-2907
-3022
-3233
-3200
-3167
-3135
-3103
-3071
-3040
-3009
-3221
-3484
-3449
-3414
-3379
-3345
-3311
-3277
-3244
-3323
-3289
-3454
-3425
-3669
-3632
-3595
-3801
-4096
-4055
-4014
-3973
-3933
-3893
-4062
-4110
-4068
-4027
-3986
-4049
-4200
-4157
-4115
-4073
-4032
-3991
-3951
-3911
-3970
-3990
-3950
-3910
-3870
-3831
-3792
-3754
-3716
-3678
-3820
-3977
-3937
-3897
-3857
-3999
-3958
-4084
-4043
-4002
-4055
-4014
-3973
-3933
-3893
-3854
-3815
-3776
-3738
-3700
-3662
-3625
-3588
-3552
-3516
-3480
-3445
-3410
-3375
-3341
-3414
-3397
-3362
-3328
-3294
-3261
-3228
-3195
-3163
-3271
-3238
-3205
-3172
-3390
-3356
-3322
-3288
-3454
-3419
-3384
-3530
-3751
-3713
-3687
-3650
-3613
-3576
-3672
-3955
-3981
-4026
-3985
-4010
-4080
-4039
-3998
-3957
-3917
-3877
-3838
-4006
-4186
-4144
-4102
-4060
-4241
-4335
-4371
-4382
-4521
-4665
-4618
-4618
-4773
-4725
-4774
-4804
-4883
-5012
-5117
-5164
-5274
-5383
-5329
-5293
-5240
-5187
-5159
-5026
-4888
-4773
-4725
-4742
-4694
-4647
-4637
-4590
-4609
-4599
-4559
-4548
-4567
-4459
-4262
-4067
-3920
-3810
-3758
-3750
-3686
-3684
-3647
-3610
-3573
-3537
-3598
-3658
-3621
-3584
-3606
-3546
-3568
-3504
-3331
-3297
-3263
-3032
-3007
-2976
-2909
-2839
-2724
-2656
-2342
-2060
-2039
-1846
-1840
-1821
-1630
-1441
-1168
-898
-972
-962
-1020
-988
-943
-898
-889
-959
-989
-950
-953
-943
-898
-787
-658
-756
-787
-802
-816
-928
-1039
-1096
-1205
-1312
-1418
-1585
-1817
-2046
-2025
-2229
-2454
-2676
-2897
-3016
-3137
-3283
-3428
-3611
-3792
-4017
-4086
-4037
-4151
-4109
-4245
-4380
-4584
-4786
-4986
-5184
-5380
-5574
-5696
-5897
-6076
-6261
-6198
-6335
-6449
-6562
-6677
-6851
-7023
-6952
-7123
-7269
-7414
-7580
-7728
-7650
-7800
-7816
-7962
-8130
-8295
-8458
-8621
-8781
-8847
-9006
-9163
-9318
-9472
-9625
-9776
-9678
-9829
-9977
-10076
-9975
-10116
-10014
-10184
-10330
-10474
-10616
-10757
-10918
-11056
-11193
-11328
-11484
-11617
-11748
-11901
-12029
-12212
-12393
-12572
-12694
-12863
-13061
-13129
-13245
-13433
-13596
-13786
-13969
-14126
-14232
-14393
-14496
-14350
-14510
-14612
-14713
-14813
-14935
-15089
-14937
-15035
-15132
-15228
-15379
-15523
-15688
-15850
-16012
-15851
-16019
-16162
-16248
-16085
-15923
-16011
-16098
-16200
-16037
-16140
-16226
-16063
-16110
-16195
-16032
-16079
-16126
-16172
-16258
-16095
-16141
-16210
-16278
-16363
-16423
-16529
-16611
-16724
-16786
-16886
-16919
-17001
-17059
-17141
-17222
-17279
-17336
-17410
-17465
-17521
-17575
-17630
-17717
-17809
-17837
-17866
-17935
-17986
-18030
-18057
-18180
-18223
-18298
-18114
-18236
-18284
-18324
-18239
-18263
-18288
-18368
-18184
-18271
-18352
-18461
-18484
-18298
-18440
-18525
-18643
-18664
-18724
-18744
-18804
-18863
-18874
-18926
-19000
-18809
-18940
-19070
-19176
-19281
-19329
-19438
-19491
-19598
-19649
-19778
-19878
-19679
-19786
-19835
-19636
-19439
-19244
-19299
-19353
-19407
-19460
-19513
-19564
-19368
-19422
-19474
-19527
-19579
-19687
-19792
-19897
-19944
-19992
-20039
-20085
-20187
-20215
-20219
-20223
-20222
-20227
-20328
-20388
-20447
-20540
-20638
-20729
-20825
-20824
-20879
-20670
-20463
-20526
-20572
-20574
-20599
-20392
-20395
-20477
-20525
-20583
-20606
-20399
-20425
-20450
-20245
-20272
-20322
-20118
-19916
-19963
-20005
-20012
-19811
-19764
-19761
-19705
-19701
-19656
-19636
-19647
-19569
-19574
-19626
-19677
-19728
-19530
-19582
-19633
-19684
-19734
-19784
-19833
-19634
-19509
-19560
-19611
-19641
-19602
-19610
-19514
-19655
-19689
-19845
-19854
-19926
-19974
-20022
-20175
-19973
-20021
-20091
-20243
-20040
-19839
-19640
-19443
-19496
-19677
-19480
-19285
-19445
-19604
-19407
-19212
-19373
-19556
-19714
-19764
-19566
-19724
-19526
-19666
-19469
-19588
-19391
-19196
-19003
-19149
-18957
-18767
-18579
-18623
-18495
-18309
-18125
-17943
-17763
-17585
-17408
-17233
-17060
-17070
-17088
-16916
-16746
-16578
-16412
-16247
-16084
-15923
-15763
-15761
-15680
-15523
-15367
-15213
-15060
-15209
-15333
-15179
-15327
-15368
-15227
-15074
-15141
-15059
-15017
-15064
-15105
-15017
-14866
-14843
-14787
-14788
-14764
-14660
-14665
-14539
-14670
-14774
-14821
-14881
-15009
-15090
-15238
-15299
-15448
-15363
-15512
-15356
-15202
-15188
-15127
-15236
-15130
-15236
-15301
-15339
-15443
-15617
-15760
-15902
-15989
-15810
-15647
-15560
-15448
-15405
-15320
-15469
-15588
-15431
-15523
-15367
-15431
-15523
-15539
-15706
-15854
-15695
-15860
-15701
-15837
-15961
-16100
-15938
-16054
-16175
-16342
-16404
-16549
-16643
-16354
-16223
-16099
-16018
-15938
-15746
-15588
-15431
-15404
-15400
-15245
-15087
-15036
-14804
-14656
-14601
-14455
-14239
-14317
-14079
-13953
-13863
-13724
-13529
-13502
-13410
-13275
-13142
-13054
-12939
-12809
-12701
-12676
-12549
-12526
-12589
-12655
-12625
-12601
-12701
-12882
-12753
-12625
-12498
-12603
-12476
-12445
-12320
-12290
-12093
-11971
-12012
-12066
-11945
-12001
-12056
-12212
-12288
-12165
-12262
-12358
-12395
-12446
-12321
-12197
-12074
-12211
-12088
-12141
-12193
-12070
-12066
-12119
-12210
-12278
-12289
-12283
-12160
-12038
-11917
-11951
-11831
-11712
-11813
-11808
-11842
-11833
-11906
-11979
-11986
-12009
-12017
-11896
-11776
-11658
-11670
-11656
-11539
-11423
-11411
-11425
-11310
-11196
-11083
-11107
-11081
-11011
-10900
-10902
-10815
-10706
-10724
-10616
-10555
-10472
-10399
-10423
-10327
-10223
-10229
-10132
-10176
-10074
-10102
-10129
-10156
-10054
-9953
-9999
-9898
-9927
-9956
-10025
-10070
-10121
-10019
-10024
-9923
-9982
-10008
-9907
-9959
-9965
-10011
-9910
-9979
-10048
-10067
-9966
-9866
-9893
-9793
-9780
-9730
-9720
-9622
-9525
-9517
-9421
-9414
-9309
-9301
-9255
-9162
-9070
-8979
-8889
-8800
-8711
-8623
-8536
-8450
-8365
-8281
-8198
-8115
-8033
-7952
-7872
-7913
-7847
-7808
-7875
-7796
-7757
-7719
-7641
-7564
-7608
-7467
-7334
-7260
-7187
-7156
-7105
-7033
-7075
-7004
-6933
-6863
-6794
-6725
-6783
-6715
-6667
-6600
-6533
-6596
-6682
-6615
-6549
-6483
-6419
-6354
-6267
-6204
-6141
-6079
-6018
-5957
-5897
-5837
-5778
-5720
-5662
-5606
-5549
-5493
-5551
-5582
-5526
-5644
-5587
-5531
-5713
-5655
-5598
-5541
-5693
-5871
-5812
-5753
-5897
-6041
-6101
-6039
-6064
-6003
-5918
-5874
-5816
-5757
-5845
-5786
-5875
-6089
-6277
-6214
-6321
-6379
-6315
-6291
-6248
-6185
-6289
-6226
-6267
-6204
-6312
-6248
-6185
-6124
-6314
-6581
-6826
-7088
-7307
-7527
-7451
-7376
-7666
-7589
-7748
-7670
-7767
-7691
-7843
-7885
-7991
-7911
-7831
-7752
-7791
-7976
-8119
-8037
-7956
-7977
-7897
-7817
-7806
-7841
-7793
-7714
-7636
-7559
-7552
-7652
-7733
-7694
-7717
-7639
-7545
-7469
-7528
-7553
-7557
-7658
-7581
-7505
-7429
-7479
-7532
-7627
-7667
-7791
-7713
-7756
-7678
-7787
-7855
-7776
-7698
-7620
-7543
-7467
-7392
-7318
-7244
-7257
-7184
-7153
-7081
-7055
-6984
-6914
-6844
-6775
-6707
-6639
-6572
-6506
-6440
-6375
-6378
-6418
-6353
-6289
-6226
-6163
-6101